0.000,-0.840,-0.630,0.170,-0.330
0.002,-0.830,-0.620,0.170,-0.320
0.004,-0.810,-0.610,0.160,-0.320
0.006,-0.800,-0.600,0.170,-0.330
0.008,-0.790,-0.600,0.180,-0.330
0.010,-0.780,-0.610,0.200,-0.310
0.012,-0.760,-0.600,0.230,-0.310
0.014,-0.750,-0.600,0.260,-0.290
0.016,-0.730,-0.620,0.280,-0.260
0.018,-0.720,-0.630,0.300,-0.260
0.020,-0.720,-0.610,0.300,-0.270
0.022,-0.710,-0.620,0.310,-0.270
0.024,-0.700,-0.620,0.310,-0.260
0.026,-0.710,-0.620,0.300,-0.260
0.028,-0.710,-0.620,0.320,-0.240
0.030,-0.700,-0.620,0.330,-0.220
0.032,-0.690,-0.610,0.350,-0.210
0.034,-0.690,-0.590,0.340,-0.210
0.036,-0.680,-0.590,0.340,-0.190
0.038,-0.660,-0.600,0.350,-0.180
0.040,-0.660,-0.620,0.350,-0.170
0.042,-0.670,-0.630,0.370,-0.150
0.044,-0.670,-0.630,0.390,-0.140
0.046,-0.670,-0.620,0.400,-0.130
0.048,-0.680,-0.600,0.410,-0.120
0.050,-0.670,-0.610,0.420,-0.090
0.052,-0.650,-0.640,0.430,-0.060
0.054,-0.630,-0.660,0.450,-0.050
0.056,-0.620,-0.670,0.460,-0.040
0.058,-0.610,-0.670,0.460,-0.010
0.060,-0.620,-0.680,0.450,-0.010
0.062,-0.630,-0.670,0.440,-0.020
0.064,-0.630,-0.670,0.440,-0.010
0.066,-0.620,-0.690,0.460,0.000
0.068,-0.600,-0.700,0.470,0.020
0.070,-0.580,-0.700,0.470,0.020
0.072,-0.580,-0.700,0.480,0.030
0.074,-0.580,-0.690,0.490,0.030
0.076,-0.590,-0.660,0.480,0.000
0.078,-0.580,-0.640,0.480,0.000
0.080,-0.560,-0.640,0.490,0.010
0.082,-0.540,-0.640,0.490,0.020
0.084,-0.520,-0.640,0.480,0.040
0.086,-0.510,-0.620,0.460,0.040
0.088,-0.500,-0.600,0.440,0.020
0.090,-0.510,-0.570,0.420,0.000
0.092,-0.510,-0.540,0.400,-0.010
0.094,-0.500,-0.520,0.390,-0.010
0.096,-0.470,-0.500,0.370,-0.010
0.098,-0.440,-0.480,0.350,-0.010
0.100,-0.400,-0.460,0.340,-0.010
0.102,-0.380,-0.430,0.310,-0.010
0.104,-0.370,-0.380,0.270,-0.020
0.106,-0.350,-0.340,0.240,-0.040
0.108,-0.320,-0.300,0.210,-0.040
0.110,-0.300,-0.250,0.180,-0.050
0.112,-0.270,-0.220,0.130,-0.080
0.114,-0.230,-0.190,0.090,-0.090
0.116,-0.200,-0.150,0.040,-0.100
0.118,-0.180,-0.080,0.000,-0.140
0.120,-0.160,-0.030,-0.020,-0.160
0.122,-0.140,-0.010,-0.030,-0.160
0.124,-0.120,0.000,-0.050,-0.140
0.126,-0.110,0.010,-0.070,-0.130
0.128,-0.090,0.030,-0.090,-0.140
0.130,-0.060,0.060,-0.110,-0.150
0.132,-0.050,0.100,-0.120,-0.150
0.134,-0.030,0.120,-0.140,-0.140
0.136,0.000,0.140,-0.150,-0.130
0.138,0.010,0.160,-0.160,-0.120
0.140,0.010,0.170,-0.170,-0.120
0.142,0.010,0.180,-0.170,-0.120
0.144,0.010,0.200,-0.180,-0.120
0.146,0.010,0.230,-0.180,-0.130
0.148,0.040,0.240,-0.180,-0.120
0.150,0.060,0.240,-0.190,-0.100
0.152,0.080,0.240,-0.190,-0.100
0.154,0.100,0.220,-0.210,-0.100
0.156,0.100,0.230,-0.230,-0.090
0.158,0.080,0.240,-0.240,-0.100
0.160,0.070,0.250,-0.260,-0.120
0.162,0.070,0.260,-0.260,-0.130
0.164,0.080,0.260,-0.260,-0.120
0.166,0.080,0.250,-0.260,-0.100
0.168,0.080,0.250,-0.270,-0.070
0.170,0.090,0.240,-0.270,-0.070
0.172,0.100,0.230,-0.280,-0.060
0.174,0.090,0.250,-0.290,-0.060
0.176,0.080,0.270,-0.290,-0.080
0.178,0.070,0.260,-0.290,-0.080
0.180,0.070,0.240,-0.300,-0.080
0.182,0.070,0.230,-0.290,-0.070
0.184,0.060,0.210,-0.280,-0.040
0.186,0.060,0.200,-0.270,-0.040
0.188,0.040,0.200,-0.280,-0.060
0.190,0.030,0.210,-0.280,-0.060
0.192,0.030,0.210,-0.280,-0.060
0.194,0.030,0.210,-0.270,-0.060
0.196,0.040,0.180,-0.260,-0.050
0.198,0.040,0.160,-0.240,-0.040
0.200,0.040,0.170,-0.230,-0.030
0.202,0.040,0.180,-0.230,-0.040
0.204,0.040,0.180,-0.230,-0.060
0.206,0.040,0.180,-0.220,-0.050
0.208,0.030,0.180,-0.210,-0.050
0.210,0.040,0.170,-0.190,-0.050
0.212,0.050,0.170,-0.180,-0.040
0.214,0.050,0.160,-0.160,-0.020
0.216,0.050,0.170,-0.160,-0.020
0.218,0.060,0.170,-0.160,-0.010
0.220,0.060,0.160,-0.150,-0.020
0.222,0.050,0.150,-0.130,-0.020
0.224,0.040,0.150,-0.110,-0.020
0.226,0.040,0.140,-0.110,-0.020
0.228,0.040,0.150,-0.120,-0.020
0.230,0.020,0.150,-0.150,-0.030
0.232,0.000,0.150,-0.180,-0.030
0.234,0.010,0.140,-0.170,0.000
0.236,0.030,0.130,-0.160,0.000
0.238,0.050,0.110,-0.160,0.010
0.240,0.060,0.110,-0.160,0.020
0.242,0.060,0.110,-0.160,0.030
0.244,0.050,0.130,-0.170,0.030
0.246,0.040,0.140,-0.180,0.020
0.248,0.040,0.140,-0.170,0.030
0.250,0.060,0.140,-0.160,0.060
0.252,0.080,0.120,-0.170,0.060
0.254,0.080,0.120,-0.170,0.070
0.256,0.080,0.120,-0.170,0.080
0.258,0.060,0.140,-0.170,0.080
0.260,0.060,0.160,-0.170,0.070
0.262,0.060,0.160,-0.170,0.080
0.264,0.070,0.150,-0.150,0.100
0.266,0.090,0.140,-0.150,0.120
0.268,0.100,0.120,-0.140,0.140
0.270,0.090,0.120,-0.130,0.130
0.272,0.070,0.150,-0.150,0.110
0.274,0.060,0.160,-0.170,0.090
0.276,0.060,0.160,-0.170,0.090
0.278,0.080,0.150,-0.140,0.090
0.280,0.090,0.130,-0.120,0.090
0.282,0.090,0.120,-0.110,0.110
0.284,0.080,0.100,-0.100,0.120
0.286,0.080,0.100,-0.110,0.130
0.288,0.080,0.110,-0.110,0.120
0.290,0.080,0.110,-0.110,0.120
0.292,0.060,0.100,-0.110,0.100
0.294,0.070,0.100,-0.110,0.100
0.296,0.080,0.090,-0.110,0.100
0.298,0.080,0.080,-0.110,0.110
0.300,0.080,0.100,-0.100,0.110
0.302,0.070,0.110,-0.100,0.110
0.304,0.070,0.100,-0.090,0.100
0.306,0.080,0.090,-0.080,0.100
0.308,0.080,0.070,-0.090,0.100
0.310,0.070,0.070,-0.090,0.100
0.312,0.070,0.080,-0.090,0.110
0.314,0.080,0.080,-0.080,0.110
0.316,0.070,0.090,-0.070,0.120
0.318,0.070,0.080,-0.060,0.130
0.320,0.080,0.070,-0.050,0.130
0.322,0.090,0.060,-0.050,0.140
0.324,0.090,0.050,-0.060,0.140
0.326,0.070,0.040,-0.070,0.140
0.328,0.050,0.050,-0.090,0.120
0.330,0.040,0.070,-0.100,0.090
0.332,0.050,0.060,-0.090,0.100
0.334,0.060,0.050,-0.080,0.120
0.336,0.070,0.040,-0.070,0.120
0.338,0.080,0.040,-0.070,0.120
0.340,0.070,0.030,-0.070,0.110
0.342,0.060,0.040,-0.080,0.090
0.344,0.050,0.050,-0.080,0.070
0.346,0.050,0.050,-0.080,0.060
0.348,0.060,0.070,-0.080,0.080
0.350,0.060,0.080,-0.080,0.090
0.352,0.070,0.080,-0.080,0.100
0.354,0.080,0.070,-0.080,0.090
0.356,0.070,0.090,-0.100,0.070
0.358,0.060,0.100,-0.110,0.050
0.360,0.060,0.100,-0.100,0.050
0.362,0.070,0.110,-0.100,0.050
0.364,0.080,0.110,-0.080,0.060
0.366,0.080,0.100,-0.070,0.080
0.368,0.090,0.100,-0.080,0.090
0.370,0.090,0.110,-0.100,0.080
0.372,0.080,0.130,-0.110,0.070
0.374,0.070,0.130,-0.120,0.070
0.376,0.060,0.130,-0.120,0.060
0.378,0.060,0.140,-0.120,0.060
0.380,0.060,0.140,-0.110,0.070
0.382,0.080,0.120,-0.110,0.080
0.384,0.100,0.130,-0.110,0.070
0.386,0.100,0.140,-0.110,0.050
0.388,0.090,0.130,-0.110,0.050
0.390,0.070,0.130,-0.100,0.060
0.392,0.070,0.130,-0.100,0.060
0.394,0.070,0.130,-0.100,0.060
0.396,0.070,0.120,-0.090,0.070
0.398,0.060,0.120,-0.070,0.090
0.400,0.060,0.130,-0.060,0.090
0.402,0.070,0.100,-0.050,0.100
0.404,0.080,0.090,-0.040,0.090
0.406,0.090,0.080,-0.030,0.090
0.408,0.090,0.070,-0.040,0.090
0.410,0.090,0.060,-0.050,0.090
0.412,0.080,0.070,-0.050,0.090
0.414,0.070,0.080,-0.050,0.080
0.416,0.060,0.070,-0.040,0.100
0.418,0.050,0.060,-0.020,0.110
0.420,0.030,0.040,-0.010,0.110
0.422,0.020,0.030,-0.010,0.110
0.424,0.010,0.040,-0.010,0.110
0.426,0.000,0.040,-0.010,0.100
0.428,-0.010,0.060,0.000,0.080
0.430,-0.010,0.050,0.000,0.090
0.432,0.000,0.030,0.020,0.120
0.434,0.000,0.020,0.030,0.140
0.436,0.010,0.000,0.040,0.150
0.438,0.010,-0.020,0.040,0.150
0.440,0.010,-0.010,0.030,0.140
0.442,0.000,0.000,0.020,0.130
0.444,0.000,0.000,0.020,0.130
0.446,0.010,-0.030,0.040,0.150
0.448,0.030,-0.040,0.060,0.160
0.450,0.030,-0.050,0.080,0.160
0.452,0.030,-0.040,0.080,0.150
0.454,0.040,-0.030,0.080,0.130
0.456,0.030,-0.020,0.090,0.100
0.458,0.010,-0.010,0.080,0.090
0.460,0.000,-0.010,0.080,0.090
0.462,0.000,-0.020,0.080,0.090
0.464,0.000,-0.040,0.090,0.110
0.466,0.000,-0.060,0.090,0.120
0.468,-0.020,-0.070,0.110,0.120
0.470,-0.060,-0.080,0.120,0.090
0.472,-0.100,-0.130,0.140,0.070
0.474,-0.150,-0.190,0.170,0.070
0.476,-0.220,-0.250,0.190,0.040
0.478,-0.260,-0.290,0.190,0.000
0.480,-0.240,-0.270,0.180,0.000
0.482,-0.130,-0.170,0.160,0.060
0.484,0.050,0.000,0.120,0.150
0.486,0.350,0.240,0.080,0.300
0.488,0.730,0.510,0.060,0.520
0.490,1.200,0.800,0.110,0.840
0.492,1.730,1.120,0.200,1.230
0.494,2.300,1.460,0.300,1.660
0.496,2.920,1.820,0.400,2.130
0.498,3.540,2.190,0.480,2.590
0.500,4.170,2.540,0.560,3.080
0.502,4.780,2.860,0.640,3.540
0.504,5.270,3.100,0.730,3.940
0.506,5.600,3.220,0.820,4.230
0.508,5.760,3.260,0.860,4.370
0.510,5.760,3.220,0.850,4.370
0.512,5.550,3.070,0.800,4.200
0.514,5.110,2.780,0.680,3.830
0.516,4.460,2.410,0.500,3.280
0.518,3.700,2.020,0.320,2.650
0.520,2.970,1.640,0.170,2.070
0.522,2.310,1.290,0.090,1.580
0.524,1.710,0.960,0.040,1.170
0.526,1.200,0.690,0.020,0.810
0.528,0.770,0.440,0.020,0.520
0.530,0.410,0.220,0.030,0.280
0.532,0.090,0.020,0.030,0.080
0.534,-0.160,-0.140,0.030,-0.070
0.536,-0.380,-0.280,0.020,-0.210
0.538,-0.570,-0.390,0.020,-0.340
0.540,-0.740,-0.480,0.000,-0.450
0.542,-0.870,-0.560,0.000,-0.540
0.544,-0.960,-0.630,0.000,-0.600
0.546,-1.030,-0.690,0.010,-0.650
0.548,-1.100,-0.730,0.030,-0.680
0.550,-1.150,-0.770,0.060,-0.690
0.552,-1.180,-0.800,0.060,-0.700
0.554,-1.220,-0.790,0.040,-0.750
0.556,-1.250,-0.790,0.030,-0.780
0.558,-1.260,-0.800,0.050,-0.770
0.560,-1.270,-0.810,0.050,-0.760
0.562,-1.270,-0.820,0.060,-0.750
0.564,-1.260,-0.830,0.070,-0.740
0.566,-1.260,-0.820,0.070,-0.730
0.568,-1.260,-0.810,0.070,-0.720
0.570,-1.250,-0.800,0.080,-0.710
0.572,-1.230,-0.810,0.100,-0.690
0.574,-1.210,-0.800,0.100,-0.680
0.576,-1.200,-0.790,0.100,-0.680
0.578,-1.170,-0.790,0.100,-0.670
0.580,-1.130,-0.800,0.110,-0.650
0.582,-1.120,-0.790,0.110,-0.640
0.584,-1.120,-0.780,0.110,-0.610
0.586,-1.100,-0.760,0.120,-0.600
0.588,-1.070,-0.750,0.140,-0.590
0.590,-1.040,-0.750,0.140,-0.560
0.592,-1.030,-0.750,0.140,-0.550
0.594,-1.030,-0.730,0.130,-0.550
0.596,-1.030,-0.700,0.120,-0.560
0.598,-1.010,-0.690,0.130,-0.540
0.600,-0.980,-0.680,0.120,-0.520
0.602,-0.950,-0.670,0.120,-0.510
0.604,-0.930,-0.660,0.120,-0.510
0.606,-0.920,-0.660,0.120,-0.510
0.608,-0.920,-0.650,0.130,-0.500
0.610,-0.920,-0.620,0.140,-0.500
0.612,-0.910,-0.610,0.140,-0.490
0.614,-0.890,-0.610,0.140,-0.460
0.616,-0.880,-0.590,0.150,-0.440
0.618,-0.870,-0.590,0.150,-0.420
0.620,-0.850,-0.590,0.170,-0.410
0.622,-0.820,-0.580,0.180,-0.400
0.624,-0.820,-0.560,0.180,-0.400
0.626,-0.830,-0.530,0.170,-0.400
0.628,-0.820,-0.540,0.170,-0.390
0.630,-0.790,-0.560,0.170,-0.370
0.632,-0.770,-0.560,0.170,-0.340
0.634,-0.750,-0.560,0.180,-0.320
0.636,-0.740,-0.560,0.190,-0.310
0.638,-0.730,-0.550,0.200,-0.310
0.640,-0.730,-0.540,0.200,-0.310
0.642,-0.720,-0.540,0.200,-0.310
0.644,-0.720,-0.550,0.190,-0.310
0.646,-0.700,-0.550,0.200,-0.280
0.648,-0.680,-0.560,0.210,-0.250
0.650,-0.660,-0.550,0.220,-0.230
0.652,-0.660,-0.530,0.230,-0.220
0.654,-0.670,-0.530,0.230,-0.220
0.656,-0.670,-0.550,0.230,-0.200
0.658,-0.670,-0.550,0.250,-0.190
0.660,-0.680,-0.550,0.270,-0.180
0.662,-0.680,-0.560,0.290,-0.160
0.664,-0.660,-0.570,0.310,-0.140
0.666,-0.640,-0.580,0.310,-0.130
0.668,-0.640,-0.590,0.310,-0.140
0.670,-0.640,-0.600,0.320,-0.120
0.672,-0.630,-0.610,0.330,-0.090
0.674,-0.620,-0.620,0.340,-0.080
0.676,-0.620,-0.630,0.360,-0.070
0.678,-0.600,-0.630,0.380,-0.060
0.680,-0.590,-0.640,0.400,-0.050
0.682,-0.590,-0.630,0.410,-0.050
0.684,-0.580,-0.640,0.430,-0.030
0.686,-0.570,-0.630,0.430,-0.020
0.688,-0.560,-0.640,0.430,-0.010
0.690,-0.560,-0.640,0.450,0.000
0.692,-0.570,-0.650,0.460,0.010
0.694,-0.580,-0.620,0.460,0.000
0.696,-0.580,-0.610,0.440,0.000
0.698,-0.550,-0.610,0.450,0.020
0.700,-0.530,-0.610,0.460,0.050
0.702,-0.520,-0.620,0.470,0.060
0.704,-0.510,-0.630,0.470,0.060
0.706,-0.490,-0.620,0.460,0.060
0.708,-0.490,-0.610,0.440,0.040
0.710,-0.500,-0.600,0.430,0.010
0.712,-0.510,-0.600,0.430,0.020
0.714,-0.500,-0.600,0.440,0.030
0.716,-0.500,-0.590,0.440,0.040
0.718,-0.490,-0.580,0.420,0.050
0.720,-0.470,-0.570,0.390,0.050
0.722,-0.460,-0.540,0.360,0.020
0.724,-0.460,-0.500,0.340,0.000
0.726,-0.450,-0.480,0.320,0.000
0.728,-0.430,-0.440,0.300,-0.030
0.730,-0.410,-0.400,0.270,-0.040
0.732,-0.380,-0.380,0.230,-0.040
0.734,-0.350,-0.360,0.200,-0.060
0.736,-0.330,-0.330,0.170,-0.090
0.738,-0.310,-0.290,0.130,-0.120
0.740,-0.290,-0.260,0.100,-0.140
0.742,-0.270,-0.220,0.060,-0.150
0.744,-0.250,-0.180,0.030,-0.160
0.746,-0.220,-0.150,0.010,-0.170
0.748,-0.190,-0.120,-0.010,-0.160
0.750,-0.170,-0.090,-0.040,-0.160
0.752,-0.140,-0.040,-0.060,-0.170
0.754,-0.110,-0.010,-0.100,-0.180
0.756,-0.100,0.010,-0.120,-0.180
0.758,-0.080,0.050,-0.130,-0.190
0.760,-0.060,0.070,-0.150,-0.190
0.762,-0.040,0.090,-0.160,-0.170
0.764,-0.020,0.110,-0.170,-0.160
0.766,-0.010,0.140,-0.190,-0.170
0.768,0.000,0.170,-0.200,-0.160
0.770,0.020,0.190,-0.200,-0.150
0.772,0.030,0.200,-0.200,-0.150
0.774,0.040,0.210,-0.220,-0.150
0.776,0.050,0.220,-0.230,-0.150
0.778,0.060,0.240,-0.250,-0.170
0.780,0.060,0.260,-0.270,-0.180
0.782,0.080,0.270,-0.280,-0.170
0.784,0.100,0.270,-0.270,-0.150
0.786,0.110,0.260,-0.270,-0.140
0.788,0.120,0.250,-0.270,-0.140
0.790,0.130,0.250,-0.270,-0.130
0.792,0.120,0.260,-0.280,-0.120
0.794,0.110,0.280,-0.290,-0.130
0.796,0.110,0.270,-0.290,-0.130
0.798,0.110,0.270,-0.270,-0.120
0.800,0.120,0.270,-0.270,-0.110
0.802,0.120,0.260,-0.270,-0.100
0.804,0.130,0.250,-0.270,-0.100
0.806,0.130,0.240,-0.270,-0.110
0.808,0.120,0.250,-0.270,-0.140
0.810,0.110,0.250,-0.280,-0.150
0.812,0.110,0.240,-0.270,-0.140
0.814,0.120,0.230,-0.250,-0.120
0.816,0.120,0.230,-0.230,-0.100
0.818,0.120,0.220,-0.210,-0.090
0.820,0.120,0.220,-0.200,-0.090
0.822,0.110,0.240,-0.200,-0.110
0.824,0.090,0.230,-0.210,-0.110
0.826,0.080,0.220,-0.210,-0.100
0.828,0.080,0.210,-0.210,-0.100
0.830,0.080,0.200,-0.210,-0.090
0.832,0.070,0.190,-0.200,-0.080
0.834,0.060,0.190,-0.190,-0.080
0.836,0.060,0.200,-0.180,-0.080
0.838,0.070,0.200,-0.180,-0.090
0.840,0.070,0.190,-0.170,-0.080
0.842,0.060,0.180,-0.170,-0.080
0.844,0.060,0.180,-0.160,-0.070
0.846,0.070,0.170,-0.150,-0.050
0.848,0.070,0.170,-0.140,-0.040
0.850,0.060,0.190,-0.150,-0.050
0.852,0.060,0.190,-0.140,-0.050
0.854,0.060,0.180,-0.130,-0.050
0.856,0.060,0.180,-0.120,-0.040
0.858,0.060,0.180,-0.120,-0.020
0.860,0.060,0.180,-0.120,-0.020
0.862,0.070,0.180,-0.110,-0.020
0.864,0.090,0.190,-0.110,-0.020
0.866,0.090,0.180,-0.110,-0.020
0.868,0.100,0.170,-0.100,-0.010
0.870,0.110,0.160,-0.100,-0.020
0.872,0.120,0.150,-0.090,-0.020
0.874,0.110,0.150,-0.090,-0.020
0.876,0.090,0.160,-0.080,-0.020
0.878,0.080,0.170,-0.060,-0.030
0.880,0.080,0.170,-0.060,-0.010
0.882,0.100,0.170,-0.050,0.010
0.884,0.120,0.160,-0.050,0.030
0.886,0.130,0.160,-0.050,0.030
0.888,0.120,0.160,-0.050,0.030
0.890,0.120,0.160,-0.060,0.030
0.892,0.090,0.190,-0.080,0.020
0.894,0.080,0.200,-0.080,0.020
0.896,0.100,0.190,-0.070,0.040
0.898,0.120,0.180,-0.060,0.050
0.900,0.130,0.170,-0.060,0.070
0.902,0.140,0.160,-0.040,0.080
0.904,0.130,0.150,-0.040,0.080
0.906,0.120,0.160,-0.050,0.050
0.908,0.120,0.150,-0.050,0.040
0.910,0.130,0.150,-0.050,0.040
0.912,0.140,0.140,-0.050,0.050
0.914,0.140,0.130,-0.040,0.060
0.916,0.130,0.120,-0.030,0.080
0.918,0.140,0.120,-0.030,0.090
0.920,0.130,0.130,-0.010,0.080
0.922,0.130,0.140,0.000,0.080
0.924,0.120,0.150,0.000,0.080
0.926,0.110,0.150,-0.010,0.070
0.928,0.110,0.130,-0.010,0.070
0.930,0.110,0.110,-0.020,0.070
0.932,0.120,0.100,-0.020,0.080
0.934,0.110,0.120,-0.050,0.070
0.936,0.100,0.130,-0.070,0.050
0.938,0.100,0.120,-0.070,0.050
0.940,0.100,0.110,-0.060,0.060
0.942,0.090,0.110,-0.040,0.080
0.944,0.080,0.100,-0.040,0.090
0.946,0.090,0.100,-0.030,0.090
0.948,0.100,0.110,-0.030,0.090
0.950,0.100,0.110,-0.030,0.090
0.952,0.110,0.100,-0.020,0.090
0.954,0.110,0.080,-0.020,0.100
0.956,0.100,0.060,-0.020,0.100
0.958,0.090,0.070,-0.020,0.100
0.960,0.080,0.070,-0.020,0.100
0.962,0.060,0.080,-0.030,0.080
0.964,0.060,0.090,-0.030,0.080
0.966,0.070,0.080,-0.030,0.090
0.968,0.070,0.060,-0.030,0.100
0.970,0.070,0.050,-0.030,0.090
0.972,0.070,0.040,-0.020,0.070
0.974,0.070,0.050,-0.010,0.060
0.976,0.060,0.070,0.000,0.030
0.978,0.040,0.080,0.000,0.010
0.980,0.040,0.090,0.000,0.000
0.982,0.050,0.090,0.000,0.020
0.984,0.070,0.090,0.010,0.030
0.986,0.060,0.080,0.000,0.030
0.988,0.060,0.090,0.000,0.020
0.990,0.050,0.100,-0.010,0.010
0.992,0.040,0.120,-0.020,0.000
0.994,0.040,0.120,-0.020,0.010
0.996,0.040,0.100,-0.020,0.010
0.998,0.040,0.090,-0.030,0.020
1.000,0.050,0.080,-0.020,0.040
1.002,0.060,0.060,-0.020,0.050
1.004,0.060,0.070,-0.040,0.020
1.006,0.040,0.090,-0.060,0.000
1.008,0.030,0.100,-0.060,0.000
1.010,0.030,0.090,-0.060,0.000
1.012,0.020,0.070,-0.060,0.020
1.014,0.020,0.050,-0.050,0.030
1.016,0.030,0.050,-0.040,0.050
1.018,0.020,0.070,-0.060,0.020
1.020,0.000,0.090,-0.090,-0.010
1.022,0.010,0.080,-0.090,0.000
1.024,0.020,0.050,-0.080,0.000
1.026,0.010,0.050,-0.070,0.000
1.028,0.000,0.060,-0.080,-0.010
1.030,0.000,0.060,-0.090,-0.010
1.032,0.000,0.070,-0.090,-0.010
1.034,-0.010,0.080,-0.080,-0.010
1.036,0.000,0.080,-0.070,-0.010
1.038,0.000,0.070,-0.070,0.000
1.040,0.000,0.070,-0.070,0.000
1.042,0.000,0.070,-0.080,0.000
1.044,0.010,0.070,-0.080,0.000
1.046,0.020,0.110,-0.070,-0.020
1.048,0.020,0.150,-0.070,-0.040
1.050,0.020,0.140,-0.090,-0.020
1.052,0.020,0.140,-0.090,-0.010
1.054,0.030,0.120,-0.090,-0.010
1.056,0.040,0.090,-0.090,0.000
1.058,0.050,0.090,-0.080,0.020
1.060,0.050,0.120,-0.090,0.020
1.062,0.060,0.140,-0.080,0.020
1.064,0.080,0.120,-0.070,0.030
1.066,0.090,0.110,-0.050,0.050
1.068,0.090,0.100,-0.030,0.050
1.070,0.090,0.090,-0.040,0.050
1.072,0.100,0.090,-0.050,0.060
1.074,0.090,0.100,-0.050,0.040
1.076,0.070,0.120,-0.050,0.020
1.078,0.070,0.120,-0.050,0.020
1.080,0.070,0.080,-0.030,0.030
1.082,0.080,0.060,-0.010,0.060
1.084,0.070,0.050,-0.020,0.060
1.086,0.060,0.040,-0.020,0.050
1.088,0.040,0.040,-0.030,0.030
1.090,0.020,0.050,-0.040,0.010
1.092,0.030,0.050,-0.040,0.010
1.094,0.030,0.060,-0.040,0.020
1.096,0.030,0.040,-0.010,0.030
1.098,0.040,0.030,0.000,0.050
1.100,0.050,0.020,0.000,0.070
1.102,0.050,0.020,0.010,0.070
1.104,0.040,0.030,0.010,0.050
1.106,0.050,0.010,0.000,0.050
1.108,0.050,0.000,0.000,0.050
1.110,0.060,-0.010,0.010,0.060
1.112,0.060,-0.020,0.010,0.080
1.114,0.060,-0.030,0.020,0.100
1.116,0.060,-0.010,0.010,0.110
1.118,0.070,0.010,0.010,0.100
1.120,0.080,0.010,0.030,0.080
1.122,0.080,0.020,0.040,0.090
1.124,0.070,0.020,0.040,0.100
1.126,0.050,0.010,0.050,0.100
1.128,0.040,0.000,0.050,0.110
1.130,0.030,-0.010,0.070,0.120
1.132,0.010,-0.020,0.080,0.110
1.134,0.000,-0.060,0.090,0.110
1.136,-0.040,-0.110,0.100,0.120
1.138,-0.090,-0.170,0.130,0.120
1.140,-0.160,-0.230,0.170,0.110
1.142,-0.230,-0.280,0.190,0.090
1.144,-0.250,-0.270,0.180,0.070
1.146,-0.200,-0.200,0.150,0.070
1.148,-0.040,-0.070,0.130,0.140
1.150,0.210,0.130,0.110,0.270
1.152,0.560,0.380,0.080,0.450
1.154,1.000,0.660,0.100,0.710
1.156,1.510,0.960,0.190,1.070
1.158,2.070,1.280,0.290,1.480
1.160,2.670,1.640,0.380,1.930
1.162,3.290,2.000,0.480,2.410
1.164,3.920,2.350,0.560,2.910
1.166,4.530,2.690,0.640,3.400
1.168,5.060,2.950,0.720,3.830
1.170,5.450,3.110,0.800,4.150
1.172,5.660,3.180,0.860,4.330
1.174,5.690,3.190,0.850,4.380
1.176,5.540,3.070,0.820,4.290
1.178,5.180,2.840,0.730,3.980
1.180,4.600,2.510,0.570,3.460
1.182,3.890,2.150,0.380,2.840
1.184,3.160,1.770,0.210,2.240
1.186,2.490,1.440,0.100,1.710
1.188,1.910,1.130,0.030,1.270
1.190,1.380,0.830,0.000,0.920
1.192,0.930,0.560,-0.030,0.620
1.194,0.560,0.330,-0.040,0.360
1.196,0.240,0.120,-0.030,0.150
1.198,-0.030,-0.030,-0.020,-0.010
1.200,-0.270,-0.180,-0.020,-0.170
1.202,-0.460,-0.290,-0.030,-0.320
1.204,-0.630,-0.390,-0.040,-0.430
1.206,-0.780,-0.480,-0.040,-0.500
1.208,-0.890,-0.550,-0.040,-0.550
1.210,-0.980,-0.610,-0.040,-0.610
1.212,-1.040,-0.670,-0.030,-0.660
1.214,-1.090,-0.700,-0.020,-0.690
1.216,-1.150,-0.710,-0.010,-0.710
1.218,-1.180,-0.740,0.000,-0.720
1.220,-1.200,-0.760,0.010,-0.730
1.222,-1.220,-0.780,0.030,-0.750
1.224,-1.230,-0.790,0.030,-0.760
1.226,-1.240,-0.790,0.040,-0.770
1.228,-1.250,-0.800,0.050,-0.760
1.230,-1.240,-0.790,0.060,-0.760
1.232,-1.210,-0.790,0.060,-0.750
1.234,-1.190,-0.780,0.070,-0.720
1.236,-1.170,-0.780,0.080,-0.720
1.238,-1.150,-0.790,0.080,-0.700
1.240,-1.150,-0.780,0.090,-0.690
1.242,-1.150,-0.750,0.090,-0.680
1.244,-1.150,-0.730,0.080,-0.700
1.246,-1.140,-0.740,0.070,-0.690
1.248,-1.110,-0.740,0.080,-0.670
1.250,-1.080,-0.740,0.100,-0.650
1.252,-1.050,-0.740,0.110,-0.640
1.254,-1.030,-0.750,0.100,-0.620
1.256,-1.010,-0.750,0.100,-0.610
1.258,-1.010,-0.710,0.100,-0.610
1.260,-1.000,-0.700,0.110,-0.610
1.262,-0.970,-0.700,0.130,-0.590
1.264,-0.950,-0.700,0.140,-0.550
1.266,-0.940,-0.700,0.140,-0.530
1.268,-0.930,-0.690,0.150,-0.510
1.270,-0.910,-0.690,0.140,-0.520
1.272,-0.900,-0.670,0.140,-0.540
1.274,-0.910,-0.640,0.140,-0.550
1.276,-0.890,-0.630,0.130,-0.530
1.278,-0.870,-0.630,0.140,-0.510
1.280,-0.840,-0.630,0.150,-0.480
1.282,-0.820,-0.620,0.170,-0.460
1.284,-0.810,-0.620,0.180,-0.440
1.286,-0.800,-0.600,0.180,-0.440
1.288,-0.800,-0.580,0.170,-0.450
1.290,-0.780,-0.570,0.170,-0.440
1.292,-0.760,-0.560,0.180,-0.420
1.294,-0.750,-0.560,0.180,-0.410
1.296,-0.740,-0.560,0.180,-0.390
1.298,-0.720,-0.560,0.190,-0.360
1.300,-0.710,-0.540,0.200,-0.360
1.302,-0.710,-0.540,0.210,-0.360
1.304,-0.690,-0.550,0.210,-0.350
1.306,-0.680,-0.560,0.220,-0.330
1.308,-0.690,-0.560,0.220,-0.320
1.310,-0.700,-0.570,0.220,-0.310
1.312,-0.690,-0.560,0.220,-0.300
1.314,-0.700,-0.540,0.210,-0.310
1.316,-0.700,-0.530,0.200,-0.310
1.318,-0.700,-0.540,0.200,-0.290
1.320,-0.690,-0.550,0.210,-0.280
1.322,-0.660,-0.550,0.220,-0.260
1.324,-0.650,-0.560,0.240,-0.240
1.326,-0.650,-0.570,0.250,-0.230
1.328,-0.650,-0.560,0.260,-0.220
1.330,-0.650,-0.560,0.280,-0.200
1.332,-0.640,-0.570,0.300,-0.170
1.334,-0.620,-0.590,0.310,-0.150
1.336,-0.610,-0.610,0.310,-0.140
1.338,-0.600,-0.630,0.330,-0.130
1.340,-0.590,-0.630,0.350,-0.120
1.342,-0.610,-0.610,0.350,-0.130
1.344,-0.610,-0.600,0.360,-0.130
1.346,-0.580,-0.610,0.390,-0.100
1.348,-0.560,-0.620,0.410,-0.070
1.350,-0.550,-0.640,0.430,-0.040
1.352,-0.550,-0.660,0.440,-0.020
1.354,-0.540,-0.670,0.450,-0.010
1.356,-0.540,-0.660,0.450,-0.010
1.358,-0.550,-0.650,0.440,-0.010
1.360,-0.560,-0.650,0.450,0.000
1.362,-0.550,-0.660,0.460,0.010
1.364,-0.540,-0.670,0.460,0.020
1.366,-0.520,-0.670,0.470,0.030
1.368,-0.490,-0.660,0.470,0.040
1.370,-0.480,-0.630,0.460,0.030
1.372,-0.490,-0.610,0.450,0.020
1.374,-0.490,-0.600,0.440,0.010
1.376,-0.480,-0.590,0.420,0.000
1.378,-0.480,-0.590,0.400,0.000
1.380,-0.470,-0.580,0.400,0.010
1.382,-0.460,-0.570,0.400,0.010
1.384,-0.470,-0.540,0.380,0.010
1.386,-0.470,-0.520,0.360,0.000
1.388,-0.460,-0.500,0.340,0.000
1.390,-0.450,-0.480,0.310,-0.010
1.392,-0.450,-0.460,0.280,-0.020
1.394,-0.430,-0.440,0.250,-0.040
1.396,-0.400,-0.410,0.220,-0.050
1.398,-0.390,-0.370,0.200,-0.110
1.400,-0.400,-0.330,0.150,-0.160
1.402,-0.370,-0.290,0.120,-0.170
1.404,-0.330,-0.260,0.080,-0.180
1.406,-0.310,-0.230,0.050,-0.210
1.408,-0.280,-0.210,0.020,-0.220
1.410,-0.250,-0.170,0.000,-0.250
1.412,-0.220,-0.110,-0.030,-0.280
1.414,-0.200,-0.070,-0.050,-0.290
1.416,-0.180,-0.040,-0.080,-0.280
1.418,-0.150,-0.010,-0.100,-0.280
1.420,-0.120,0.010,-0.120,-0.280
1.422,-0.090,0.050,-0.140,-0.290
1.424,-0.070,0.070,-0.160,-0.290
1.426,-0.050,0.110,-0.190,-0.300
1.428,-0.040,0.150,-0.220,-0.310
1.430,-0.030,0.180,-0.240,-0.310
1.432,0.000,0.190,-0.250,-0.280
1.434,0.020,0.190,-0.250,-0.250
1.436,0.050,0.200,-0.270,-0.240
1.438,0.080,0.220,-0.280,-0.240
1.440,0.080,0.250,-0.290,-0.260
1.442,0.070,0.280,-0.300,-0.270
1.444,0.080,0.280,-0.310,-0.280
1.446,0.090,0.270,-0.310,-0.280
1.448,0.110,0.260,-0.310,-0.280
1.450,0.120,0.260,-0.310,-0.260
1.452,0.130,0.270,-0.300,-0.250
1.454,0.120,0.290,-0.300,-0.250
1.456,0.110,0.290,-0.300,-0.240
1.458,0.100,0.290,-0.310,-0.230
1.460,0.090,0.280,-0.310,-0.220
1.462,0.090,0.280,-0.320,-0.230
1.464,0.100,0.280,-0.310,-0.220
1.466,0.110,0.270,-0.290,-0.210
1.468,0.110,0.270,-0.290,-0.210
1.470,0.100,0.280,-0.290,-0.220
1.472,0.100,0.270,-0.280,-0.210
1.474,0.100,0.270,-0.280,-0.200
1.476,0.100,0.260,-0.290,-0.180
1.478,0.100,0.250,-0.290,-0.180
1.480,0.110,0.250,-0.270,-0.170
1.482,0.130,0.260,-0.270,-0.160
1.484,0.120,0.260,-0.260,-0.140
1.486,0.120,0.240,-0.250,-0.130
1.488,0.110,0.220,-0.230,-0.120
1.490,0.100,0.200,-0.230,-0.110
1.492,0.100,0.190,-0.220,-0.120
1.494,0.100,0.190,-0.210,-0.120
1.496,0.100,0.180,-0.200,-0.130
1.498,0.090,0.190,-0.200,-0.130
1.500,0.080,0.190,-0.200,-0.110
1.502,0.080,0.190,-0.200,-0.090
1.504,0.090,0.190,-0.190,-0.090
1.506,0.090,0.180,-0.200,-0.090
1.508,0.090,0.170,-0.210,-0.080
1.510,0.090,0.190,-0.220,-0.090
1.512,0.100,0.200,-0.220,-0.090
1.514,0.110,0.190,-0.210,-0.070
1.516,0.120,0.180,-0.200,-0.040
1.518,0.130,0.170,-0.190,-0.040
1.520,0.120,0.160,-0.180,-0.040
1.522,0.110,0.150,-0.160,-0.030
1.524,0.090,0.160,-0.170,-0.040
1.526,0.080,0.180,-0.170,-0.050
1.528,0.080,0.180,-0.170,-0.040
1.530,0.100,0.170,-0.150,-0.020
1.532,0.100,0.160,-0.140,-0.010
1.534,0.110,0.150,-0.130,0.000
1.536,0.110,0.140,-0.120,0.000
1.538,0.110,0.150,-0.130,0.000
1.540,0.100,0.160,-0.140,-0.010
1.542,0.080,0.160,-0.160,0.000
1.544,0.080,0.140,-0.160,0.000
1.546,0.090,0.120,-0.150,0.000
1.548,0.090,0.120,-0.140,0.010
1.550,0.110,0.110,-0.120,0.040
1.552,0.110,0.100,-0.110,0.050
1.554,0.110,0.110,-0.100,0.040
1.556,0.100,0.110,-0.110,0.040
1.558,0.100,0.110,-0.100,0.050
1.560,0.100,0.110,-0.100,0.050
1.562,0.100,0.110,-0.100,0.050
1.564,0.110,0.100,-0.070,0.060
1.566,0.110,0.120,-0.070,0.060
1.568,0.100,0.120,-0.070,0.050
1.570,0.100,0.110,-0.060,0.050
1.572,0.100,0.110,-0.050,0.050
1.574,0.090,0.100,-0.050,0.060
1.576,0.080,0.100,-0.050,0.060
1.578,0.100,0.100,-0.050,0.070
1.580,0.110,0.100,-0.060,0.060
1.582,0.090,0.110,-0.050,0.060
1.584,0.090,0.090,-0.030,0.070
1.586,0.100,0.080,-0.020,0.070
1.588,0.100,0.070,-0.010,0.080
1.590,0.110,0.060,0.000,0.090
1.592,0.110,0.060,0.000,0.090
1.594,0.100,0.080,-0.010,0.070
1.596,0.080,0.100,-0.020,0.040
1.598,0.070,0.100,-0.030,0.050
1.600,0.070,0.090,-0.030,0.070
1.602,0.080,0.080,-0.030,0.080
1.604,0.090,0.070,-0.030,0.090
1.606,0.090,0.060,-0.030,0.080
1.608,0.090,0.060,-0.030,0.070
1.610,0.080,0.070,-0.020,0.050
1.612,0.070,0.080,-0.010,0.050
1.614,0.090,0.070,0.000,0.060
1.616,0.100,0.050,0.000,0.080
1.618,0.120,0.050,0.000,0.090
1.620,0.130,0.040,0.000,0.090
1.622,0.110,0.040,0.000,0.070
1.624,0.080,0.060,-0.010,0.050
1.626,0.070,0.060,-0.010,0.060
1.628,0.060,0.060,-0.010,0.060
1.630,0.060,0.050,-0.010,0.060
1.632,0.060,0.050,-0.010,0.080
1.634,0.060,0.040,0.000,0.090
1.636,0.060,0.020,0.000,0.090
1.638,0.060,0.030,0.000,0.060
1.640,0.060,0.020,0.000,0.060
1.642,0.050,0.020,0.000,0.060
1.644,0.050,0.020,0.000,0.060
1.646,0.050,0.020,0.000,0.060
1.648,0.050,0.010,0.010,0.060
1.650,0.050,0.000,0.010,0.050
1.652,0.040,0.010,0.000,0.020
1.654,0.040,0.020,0.000,0.000
1.656,0.030,0.010,0.000,0.000
1.658,0.020,0.020,0.010,0.020
1.660,0.020,0.020,0.010,0.030
1.662,0.040,0.020,0.000,0.030
1.664,0.050,0.020,0.000,0.040
1.666,0.040,0.050,0.000,0.040
1.668,0.040,0.050,0.000,0.050
1.670,0.050,0.030,0.010,0.050
1.672,0.060,0.010,0.010,0.050
1.674,0.050,0.000,0.010,0.060
1.676,0.040,0.010,0.020,0.060
1.678,0.030,0.030,0.010,0.040
1.680,0.030,0.050,0.010,0.020
1.682,0.040,0.050,0.020,0.030
1.684,0.040,0.040,0.020,0.050
1.686,0.040,0.030,0.010,0.060
1.688,0.040,0.030,0.010,0.050
1.690,0.040,0.020,0.010,0.060
1.692,0.040,0.020,0.010,0.060
1.694,0.030,0.040,0.010,0.040
1.696,0.020,0.040,0.010,0.040
1.698,0.020,0.040,0.010,0.060
1.700,0.030,0.030,0.020,0.070
1.702,0.030,0.020,0.030,0.070
1.704,0.030,0.000,0.020,0.070
1.706,0.020,0.000,0.020,0.070
1.708,0.000,0.010,0.010,0.050
1.710,0.000,0.020,0.010,0.030
1.712,0.000,0.010,0.020,0.040
1.714,0.000,0.000,0.030,0.060
1.716,0.000,0.000,0.030,0.070
1.718,0.020,0.000,0.030,0.070
1.720,0.040,0.000,0.030,0.060
1.722,0.030,0.010,0.020,0.040
1.724,0.020,0.020,0.020,0.040
1.726,0.010,0.020,0.020,0.040
1.728,0.010,0.030,0.020,0.030
1.730,0.000,0.040,0.020,0.030
1.732,0.000,0.040,0.030,0.040
1.734,0.000,0.030,0.020,0.040
1.736,0.000,0.050,0.010,0.020
1.738,0.000,0.040,0.000,0.010
1.740,0.010,0.040,-0.010,0.010
1.742,0.000,0.030,-0.020,0.010
1.744,0.020,0.030,-0.020,0.010
1.746,0.040,0.030,-0.030,0.010
1.748,0.030,0.030,-0.040,0.020
1.750,0.010,0.060,-0.060,0.010
1.752,0.010,0.060,-0.070,0.000
1.754,0.020,0.050,-0.070,0.000
1.756,0.040,0.050,-0.080,0.010
1.758,0.050,0.060,-0.080,0.020
1.760,0.050,0.070,-0.080,0.020
1.762,0.060,0.080,-0.090,0.020
1.764,0.070,0.090,-0.080,0.020
1.766,0.070,0.100,-0.070,0.040
1.768,0.080,0.100,-0.070,0.060
1.770,0.090,0.090,-0.060,0.070
1.772,0.100,0.090,-0.050,0.060
1.774,0.100,0.100,-0.050,0.050
1.776,0.100,0.110,-0.050,0.040
1.778,0.100,0.130,-0.050,0.010
1.780,0.100,0.150,-0.070,0.010
1.782,0.120,0.140,-0.070,0.040
1.784,0.150,0.120,-0.070,0.080
1.786,0.150,0.110,-0.070,0.090
1.788,0.150,0.110,-0.070,0.110
1.790,0.140,0.110,-0.080,0.110
1.792,0.100,0.120,-0.100,0.060
1.794,0.080,0.120,-0.120,0.030
1.796,0.090,0.110,-0.100,0.040
1.798,0.090,0.080,-0.080,0.050
1.800,0.100,0.070,-0.050,0.070
1.802,0.110,0.050,-0.040,0.070
1.804,0.110,0.040,-0.030,0.070
1.806,0.100,0.060,-0.030,0.070
1.808,0.100,0.070,-0.020,0.070
1.810,0.100,0.060,0.000,0.070
1.812,0.100,0.040,0.010,0.080
1.814,0.120,0.030,0.030,0.090
1.816,0.130,0.020,0.030,0.110
1.818,0.130,0.010,0.020,0.110
1.820,0.130,0.030,0.010,0.090
1.822,0.120,0.020,0.010,0.090
1.824,0.110,0.010,0.010,0.090
1.826,0.110,0.000,0.010,0.090
1.828,0.110,0.000,0.000,0.090
1.830,0.110,-0.010,0.010,0.090
1.832,0.110,-0.010,0.010,0.090
1.834,0.100,0.000,0.000,0.070
1.836,0.100,0.020,0.000,0.050
1.838,0.100,0.010,0.000,0.040
1.840,0.090,0.010,0.010,0.060
1.842,0.090,0.010,0.010,0.070
1.844,0.090,0.000,0.020,0.060
1.846,0.080,0.000,0.050,0.050
1.848,0.050,-0.020,0.060,0.040
1.850,0.010,-0.060,0.070,0.040
1.852,-0.030,-0.130,0.090,0.040
1.854,-0.090,-0.210,0.140,0.020
1.856,-0.160,-0.270,0.170,0.000
1.858,-0.190,-0.280,0.170,0.000
1.860,-0.160,-0.220,0.170,0.000
1.862,-0.010,-0.070,0.150,0.070
1.864,0.230,0.120,0.120,0.190
1.866,0.560,0.350,0.080,0.360
1.868,0.950,0.620,0.080,0.620
1.870,1.430,0.920,0.150,0.960
1.872,1.980,1.230,0.230,1.370
1.874,2.550,1.570,0.320,1.800
1.876,3.140,1.940,0.390,2.210
1.878,3.740,2.300,0.450,2.650
1.880,4.330,2.640,0.520,3.100
1.882,4.850,2.910,0.590,3.510
1.884,5.220,3.060,0.660,3.840
1.886,5.420,3.100,0.710,4.030
1.888,5.470,3.060,0.730,4.080
1.890,5.310,2.930,0.710,3.970
1.892,4.910,2.680,0.610,3.650
1.894,4.320,2.350,0.420,3.110
1.896,3.630,2.010,0.220,2.520
1.898,2.950,1.670,0.080,1.970
1.900,2.340,1.350,0.000,1.490
1.902,1.810,1.060,-0.060,1.090
1.904,1.350,0.800,-0.100,0.760
1.906,0.950,0.550,-0.110,0.490
1.908,0.600,0.320,-0.100,0.270
1.910,0.300,0.120,-0.100,0.080
1.912,0.050,-0.040,-0.080,-0.060
1.914,-0.150,-0.200,-0.060,-0.180
1.916,-0.350,-0.310,-0.050,-0.280
1.918,-0.510,-0.400,-0.060,-0.380
1.920,-0.640,-0.460,-0.070,-0.470
1.922,-0.750,-0.530,-0.060,-0.520
1.924,-0.840,-0.580,-0.050,-0.570
1.926,-0.900,-0.620,-0.040,-0.610
1.928,-0.950,-0.660,-0.020,-0.630
1.930,-0.980,-0.700,0.000,-0.640
1.932,-1.020,-0.700,0.010,-0.650
1.934,-1.050,-0.700,0.010,-0.660
1.936,-1.050,-0.710,0.020,-0.660
1.938,-1.050,-0.740,0.030,-0.660
1.940,-1.060,-0.740,0.030,-0.670
1.942,-1.070,-0.750,0.020,-0.680
1.944,-1.060,-0.750,0.020,-0.670
1.946,-1.050,-0.740,0.020,-0.670
1.948,-1.050,-0.740,0.020,-0.660
1.950,-1.030,-0.740,0.030,-0.630
1.952,-1.000,-0.740,0.040,-0.620
1.954,-0.980,-0.720,0.050,-0.630
1.956,-0.970,-0.710,0.070,-0.620
1.958,-0.970,-0.710,0.080,-0.610
1.960,-0.960,-0.690,0.070,-0.620
1.962,-0.940,-0.670,0.070,-0.630
1.964,-0.920,-0.670,0.080,-0.600
1.966,-0.900,-0.670,0.090,-0.570
1.968,-0.870,-0.670,0.100,-0.550
1.970,-0.850,-0.670,0.100,-0.540
1.972,-0.830,-0.660,0.110,-0.530
1.974,-0.830,-0.630,0.120,-0.540
1.976,-0.830,-0.610,0.110,-0.550
1.978,-0.810,-0.600,0.120,-0.530
1.980,-0.780,-0.600,0.130,-0.500
1.982,-0.760,-0.590,0.140,-0.480
1.984,-0.740,-0.590,0.140,-0.450
1.986,-0.730,-0.580,0.140,-0.440
1.988,-0.720,-0.580,0.140,-0.430
1.990,-0.710,-0.570,0.150,-0.430
1.992,-0.700,-0.560,0.140,-0.430
1.994,-0.680,-0.540,0.130,-0.420
1.996,-0.670,-0.540,0.120,-0.390
1.998,-0.640,-0.550,0.120,-0.370
2.000,-0.620,-0.550,0.130,-0.350
2.002,-0.610,-0.520,0.140,-0.340
2.004,-0.620,-0.510,0.140,-0.340
2.006,-0.620,-0.510,0.140,-0.340
2.008,-0.610,-0.500,0.140,-0.330
2.010,-0.600,-0.500,0.140,-0.330
2.012,-0.580,-0.490,0.150,-0.310
2.014,-0.570,-0.500,0.160,-0.300
2.016,-0.570,-0.480,0.160,-0.300
2.018,-0.570,-0.480,0.170,-0.310
2.020,-0.560,-0.480,0.180,-0.310
2.022,-0.550,-0.490,0.190,-0.300
2.024,-0.560,-0.480,0.190,-0.290
2.026,-0.550,-0.480,0.200,-0.270
2.028,-0.550,-0.480,0.190,-0.260
2.030,-0.550,-0.480,0.190,-0.270
2.032,-0.550,-0.480,0.180,-0.280
2.034,-0.530,-0.500,0.200,-0.260
2.036,-0.520,-0.510,0.210,-0.240
2.038,-0.510,-0.510,0.210,-0.220
2.040,-0.500,-0.510,0.220,-0.210
2.042,-0.500,-0.510,0.220,-0.190
2.044,-0.500,-0.510,0.230,-0.190
2.046,-0.500,-0.500,0.240,-0.190
2.048,-0.480,-0.510,0.250,-0.150
2.050,-0.460,-0.540,0.260,-0.120
2.052,-0.460,-0.560,0.280,-0.090
2.054,-0.460,-0.570,0.300,-0.080
2.056,-0.460,-0.590,0.320,-0.070
2.058,-0.470,-0.580,0.320,-0.090
2.060,-0.480,-0.560,0.330,-0.120
2.062,-0.460,-0.550,0.350,-0.110
2.064,-0.450,-0.570,0.370,-0.070
2.066,-0.450,-0.580,0.390,-0.040
2.068,-0.450,-0.580,0.400,-0.020
2.070,-0.430,-0.590,0.410,-0.010
2.072,-0.420,-0.580,0.420,0.000
2.074,-0.410,-0.550,0.420,0.000
2.076,-0.400,-0.550,0.430,0.000
2.078,-0.380,-0.550,0.430,0.020
2.080,-0.370,-0.560,0.420,0.030
2.082,-0.370,-0.560,0.420,0.050
2.084,-0.360,-0.570,0.420,0.060
2.086,-0.350,-0.560,0.420,0.040
2.088,-0.350,-0.530,0.400,0.000
2.090,-0.340,-0.520,0.390,0.010
2.092,-0.360,-0.510,0.370,0.010
2.094,-0.350,-0.500,0.370,0.010
2.096,-0.330,-0.480,0.360,0.020
2.098,-0.320,-0.470,0.350,0.020
2.100,-0.310,-0.460,0.320,0.020
2.102,-0.310,-0.440,0.300,0.000
2.104,-0.300,-0.420,0.280,-0.020
2.106,-0.290,-0.410,0.240,-0.040
2.108,-0.280,-0.390,0.210,-0.050
2.110,-0.280,-0.360,0.200,-0.060
2.112,-0.260,-0.330,0.180,-0.070
2.114,-0.240,-0.290,0.160,-0.090
2.116,-0.220,-0.250,0.130,-0.110
2.118,-0.200,-0.220,0.110,-0.120
2.120,-0.180,-0.190,0.080,-0.110
2.122,-0.150,-0.160,0.060,-0.120
2.124,-0.130,-0.130,0.020,-0.130
2.126,-0.110,-0.090,-0.010,-0.140
2.128,-0.090,-0.050,-0.040,-0.160
2.130,-0.080,-0.020,-0.080,-0.180
2.132,-0.050,0.000,-0.110,-0.190
2.134,-0.020,0.020,-0.120,-0.170
2.136,0.000,0.050,-0.150,-0.170
2.138,0.010,0.080,-0.180,-0.180
2.140,0.020,0.110,-0.210,-0.190
2.142,0.030,0.140,-0.240,-0.210
2.144,0.050,0.160,-0.260,-0.240
2.146,0.070,0.170,-0.270,-0.240
2.148,0.090,0.170,-0.270,-0.230
2.150,0.110,0.180,-0.270,-0.220
2.152,0.120,0.190,-0.280,-0.220
2.154,0.130,0.210,-0.280,-0.220
2.156,0.130,0.220,-0.290,-0.230
2.158,0.140,0.240,-0.300,-0.250
2.160,0.160,0.260,-0.300,-0.250
2.162,0.180,0.270,-0.300,-0.250
2.164,0.180,0.270,-0.300,-0.240
2.166,0.170,0.270,-0.310,-0.220
2.168,0.180,0.260,-0.310,-0.210
2.170,0.180,0.270,-0.320,-0.230
2.172,0.180,0.290,-0.340,-0.240
2.174,0.170,0.300,-0.330,-0.240
2.176,0.170,0.300,-0.320,-0.220
2.178,0.180,0.280,-0.310,-0.210
2.180,0.190,0.270,-0.290,-0.200
2.182,0.180,0.270,-0.280,-0.180
2.184,0.170,0.280,-0.280,-0.160
2.186,0.160,0.300,-0.270,-0.170
2.188,0.160,0.290,-0.260,-0.180
2.190,0.160,0.280,-0.250,-0.170
2.192,0.140,0.260,-0.260,-0.170
2.194,0.130,0.250,-0.270,-0.170
2.196,0.130,0.230,-0.280,-0.160
2.198,0.130,0.230,-0.270,-0.160
2.200,0.130,0.250,-0.270,-0.150
2.202,0.130,0.240,-0.260,-0.130
2.204,0.140,0.230,-0.260,-0.120
2.206,0.140,0.230,-0.250,-0.110
2.208,0.130,0.230,-0.260,-0.100
2.210,0.130,0.230,-0.260,-0.110
2.212,0.120,0.230,-0.250,-0.130
2.214,0.110,0.240,-0.250,-0.150
2.216,0.100,0.220,-0.250,-0.130
2.218,0.110,0.220,-0.220,-0.100
2.220,0.120,0.200,-0.210,-0.090
2.222,0.120,0.180,-0.210,-0.080
2.224,0.110,0.180,-0.210,-0.060
2.226,0.100,0.200,-0.210,-0.060
2.228,0.100,0.210,-0.200,-0.070
2.230,0.110,0.200,-0.180,-0.060
2.232,0.110,0.200,-0.180,-0.050
2.234,0.120,0.190,-0.180,-0.030
2.236,0.140,0.180,-0.180,-0.020
2.238,0.150,0.180,-0.170,-0.030
2.240,0.130,0.190,-0.170,-0.040
2.242,0.120,0.210,-0.170,-0.050
2.244,0.110,0.210,-0.170,-0.040
2.246,0.120,0.190,-0.150,-0.030
2.248,0.130,0.170,-0.140,-0.010
2.250,0.130,0.170,-0.150,0.000
2.252,0.140,0.160,-0.150,0.010
2.254,0.140,0.160,-0.160,0.000
2.256,0.120,0.190,-0.170,-0.020
2.258,0.100,0.210,-0.180,-0.020
2.260,0.100,0.200,-0.160,-0.020
2.262,0.110,0.190,-0.140,-0.010
2.264,0.120,0.180,-0.130,0.000
2.266,0.130,0.170,-0.120,0.020
2.268,0.140,0.150,-0.110,0.030
2.270,0.130,0.160,-0.130,0.000
2.272,0.130,0.160,-0.140,0.010
2.274,0.130,0.150,-0.140,0.020
2.276,0.120,0.150,-0.140,0.020
2.278,0.140,0.160,-0.130,0.020
2.280,0.150,0.160,-0.110,0.030
2.282,0.150,0.160,-0.110,0.040
2.284,0.150,0.180,-0.110,0.050
2.286,0.150,0.170,-0.100,0.050
2.288,0.170,0.150,-0.110,0.060
2.290,0.170,0.140,-0.110,0.070
2.292,0.160,0.130,-0.100,0.080
2.294,0.150,0.140,-0.100,0.080
2.296,0.150,0.150,-0.090,0.090
2.298,0.130,0.170,-0.110,0.080
2.300,0.120,0.180,-0.120,0.090
2.302,0.130,0.170,-0.110,0.100
2.304,0.140,0.150,-0.100,0.100
2.306,0.150,0.130,-0.090,0.100
2.308,0.150,0.120,-0.080,0.110
2.310,0.140,0.120,-0.080,0.110
2.312,0.130,0.130,-0.070,0.100
2.314,0.120,0.140,-0.060,0.110
2.316,0.120,0.130,-0.040,0.140
2.318,0.120,0.100,-0.020,0.150
2.320,0.130,0.080,-0.020,0.150
2.322,0.130,0.070,-0.020,0.140
2.324,0.120,0.090,-0.030,0.130
2.326,0.100,0.120,-0.050,0.100
2.328,0.100,0.120,-0.060,0.090
2.330,0.100,0.100,-0.050,0.100
2.332,0.110,0.080,-0.040,0.120
2.334,0.120,0.070,-0.040,0.130
2.336,0.120,0.060,-0.040,0.130
2.338,0.120,0.050,-0.030,0.120
2.340,0.120,0.070,-0.030,0.090
2.342,0.110,0.070,-0.040,0.090
2.344,0.110,0.080,-0.040,0.100
2.346,0.110,0.080,-0.030,0.090
2.348,0.100,0.060,-0.020,0.090
2.350,0.100,0.060,-0.020,0.100
2.352,0.100,0.070,-0.020,0.100
2.354,0.100,0.090,-0.030,0.100
2.356,0.110,0.090,-0.030,0.080
2.358,0.110,0.090,-0.040,0.080
2.360,0.100,0.090,-0.040,0.090
2.362,0.090,0.090,-0.040,0.110
2.364,0.100,0.080,-0.030,0.120
2.366,0.110,0.070,-0.020,0.110
2.368,0.120,0.070,-0.010,0.100
2.370,0.130,0.060,-0.010,0.100
2.372,0.120,0.050,0.000,0.100
2.374,0.120,0.050,0.000,0.110
2.376,0.120,0.040,-0.010,0.120
2.378,0.110,0.050,0.000,0.120
2.380,0.110,0.060,0.000,0.110
2.382,0.100,0.060,0.000,0.100
2.384,0.090,0.060,-0.010,0.090
2.386,0.090,0.050,-0.010,0.080
2.388,0.100,0.050,-0.030,0.080
2.390,0.090,0.040,-0.030,0.080
2.392,0.080,0.040,-0.030,0.070
2.394,0.080,0.060,-0.020,0.070
2.396,0.070,0.080,0.000,0.070
2.398,0.060,0.070,0.010,0.080
2.400,0.080,0.060,0.020,0.090
2.402,0.090,0.050,0.020,0.100
2.404,0.090,0.040,0.020,0.100
2.406,0.080,0.030,0.020,0.110
2.408,0.070,0.030,0.020,0.100
2.410,0.040,0.060,0.000,0.070
2.412,0.040,0.060,0.000,0.050
2.414,0.040,0.040,0.000,0.050
2.416,0.050,0.040,0.010,0.070
2.418,0.060,0.040,0.020,0.080
2.420,0.060,0.030,0.020,0.080
2.422,0.060,0.030,0.010,0.070
2.424,0.050,0.040,0.000,0.060
2.426,0.050,0.040,0.000,0.060
2.428,0.060,0.030,0.000,0.060
2.430,0.060,0.020,0.000,0.060
2.432,0.050,0.020,0.000,0.070
2.434,0.060,0.020,0.000,0.090
2.436,0.060,0.010,0.000,0.070
2.438,0.050,0.030,-0.010,0.040
2.440,0.050,0.030,-0.010,0.040
2.442,0.050,0.030,0.000,0.040
2.444,0.040,0.020,0.000,0.040
2.446,0.050,0.000,0.000,0.050
2.448,0.060,0.000,0.010,0.060
2.450,0.060,0.010,0.020,0.070
2.452,0.050,0.020,0.020,0.050
2.454,0.050,0.010,0.000,0.030
2.456,0.070,0.010,0.000,0.040
2.458,0.060,0.000,0.000,0.040
2.460,0.050,0.000,0.000,0.040
2.462,0.040,0.000,0.020,0.040
2.464,0.030,0.010,0.020,0.050
2.466,0.020,0.030,0.000,0.040
2.468,0.010,0.040,0.000,0.040
2.470,0.010,0.040,0.000,0.040
2.472,0.020,0.030,0.000,0.050
2.474,0.020,0.020,0.000,0.050
2.476,0.020,0.010,0.000,0.030
2.478,0.020,0.010,-0.010,0.010
2.480,0.020,0.030,-0.030,0.000
2.482,0.020,0.040,-0.040,0.000
2.484,0.030,0.050,-0.040,0.020
2.486,0.040,0.070,-0.040,0.020
2.488,0.040,0.070,-0.050,0.020
2.490,0.060,0.070,-0.050,0.020
2.492,0.060,0.070,-0.060,0.000
2.494,0.060,0.080,-0.070,-0.010
2.496,0.070,0.070,-0.060,0.000
2.498,0.080,0.060,-0.050,0.010
2.500,0.080,0.060,-0.040,0.030
2.502,0.090,0.050,-0.020,0.030
2.504,0.110,0.030,-0.010,0.030
2.506,0.110,0.030,0.000,0.020
2.508,0.070,0.060,-0.010,0.000
2.510,0.060,0.070,-0.010,0.000
2.512,0.070,0.050,0.000,0.020
2.514,0.080,0.020,0.000,0.040
2.516,0.080,0.010,0.020,0.060
2.518,0.070,0.000,0.020,0.060
2.520,0.050,0.000,0.020,0.060
2.522,0.030,0.020,0.030,0.040
2.524,0.020,0.010,0.030,0.040
2.526,0.020,0.000,0.030,0.030
2.528,0.020,0.000,0.030,0.030
2.530,0.030,-0.020,0.040,0.030
2.532,0.040,-0.020,0.070,0.050
2.534,0.040,-0.020,0.080,0.060
2.536,0.020,-0.010,0.080,0.040
2.538,0.010,-0.010,0.070,0.030
2.540,0.000,-0.020,0.070,0.020
2.542,0.000,-0.030,0.070,0.020
2.544,0.000,-0.030,0.060,0.030
2.546,0.010,-0.040,0.070,0.040
2.548,0.020,-0.040,0.070,0.050
2.550,0.000,-0.020,0.060,0.040
2.552,0.000,-0.030,0.070,0.040
2.554,0.000,-0.050,0.080,0.050
2.556,0.000,-0.050,0.070,0.060
2.558,0.000,-0.040,0.070,0.070
2.560,0.000,-0.030,0.070,0.070
2.562,0.010,-0.020,0.070,0.080
2.564,0.000,0.000,0.070,0.090
2.566,0.000,-0.010,0.090,0.100
2.568,0.000,-0.030,0.100,0.110
2.570,-0.010,-0.060,0.100,0.090
2.572,-0.020,-0.090,0.110,0.070
2.574,-0.050,-0.120,0.120,0.080
2.576,-0.100,-0.160,0.140,0.070
2.578,-0.150,-0.200,0.170,0.040
2.580,-0.220,-0.260,0.190,0.020
2.582,-0.250,-0.280,0.200,0.010
2.584,-0.230,-0.260,0.190,0.030
2.586,-0.120,-0.180,0.170,0.070
2.588,0.060,-0.030,0.140,0.170
2.590,0.330,0.160,0.120,0.310
2.592,0.650,0.410,0.090,0.500
2.594,1.060,0.680,0.130,0.790
2.596,1.560,0.960,0.210,1.160
2.598,2.120,1.260,0.300,1.580
2.600,2.690,1.580,0.380,2.020
2.602,3.260,1.910,0.460,2.440
2.604,3.820,2.250,0.530,2.860
2.606,4.320,2.530,0.590,3.220
2.608,4.670,2.700,0.650,3.500
2.610,4.850,2.750,0.700,3.670
2.612,4.890,2.700,0.730,3.720
2.614,4.750,2.550,0.720,3.640
2.616,4.410,2.310,0.650,3.360
2.618,3.870,2.020,0.490,2.880
2.620,3.220,1.730,0.310,2.300
2.622,2.610,1.440,0.150,1.770
2.624,2.070,1.160,0.050,1.350
2.626,1.600,0.900,0.000,1.010
2.628,1.190,0.660,-0.030,0.720
2.630,0.840,0.440,-0.040,0.480
2.632,0.530,0.260,-0.050,0.280
2.634,0.280,0.110,-0.060,0.110
2.636,0.050,-0.020,-0.060,-0.020
2.638,-0.130,-0.140,-0.050,-0.150
2.640,-0.300,-0.250,-0.030,-0.240
2.642,-0.460,-0.330,-0.040,-0.330
2.644,-0.590,-0.410,-0.040,-0.410
2.646,-0.700,-0.480,-0.040,-0.470
2.648,-0.780,-0.510,-0.040,-0.520
2.650,-0.840,-0.550,-0.030,-0.540
2.652,-0.870,-0.590,-0.030,-0.560
2.654,-0.910,-0.630,-0.020,-0.590
2.656,-0.960,-0.650,-0.020,-0.610
2.658,-1.000,-0.670,-0.020,-0.620
2.660,-1.010,-0.690,-0.010,-0.630
2.662,-1.040,-0.690,0.000,-0.650
2.664,-1.040,-0.690,0.000,-0.660
2.666,-1.020,-0.700,0.020,-0.630
2.668,-1.010,-0.710,0.020,-0.620
2.670,-0.990,-0.710,0.030,-0.610
2.672,-0.970,-0.710,0.040,-0.600
2.674,-0.980,-0.700,0.040,-0.600
2.676,-1.000,-0.680,0.040,-0.620
2.678,-0.990,-0.660,0.040,-0.620
2.680,-0.960,-0.660,0.050,-0.600
2.682,-0.940,-0.650,0.050,-0.580
2.684,-0.910,-0.660,0.070,-0.570
2.686,-0.900,-0.660,0.070,-0.550
2.688,-0.880,-0.650,0.060,-0.540
2.690,-0.890,-0.600,0.030,-0.570
2.692,-0.900,-0.570,0.020,-0.580
2.694,-0.890,-0.570,0.020,-0.560
2.696,-0.860,-0.600,0.050,-0.540
2.698,-0.840,-0.610,0.050,-0.520
2.700,-0.830,-0.610,0.060,-0.500
2.702,-0.820,-0.600,0.060,-0.500
2.704,-0.810,-0.560,0.050,-0.520
2.706,-0.790,-0.550,0.050,-0.530
2.708,-0.780,-0.560,0.050,-0.510
2.710,-0.770,-0.550,0.060,-0.500
2.712,-0.740,-0.540,0.070,-0.490
2.714,-0.720,-0.540,0.070,-0.470
2.716,-0.710,-0.540,0.070,-0.440
2.718,-0.710,-0.520,0.080,-0.440
2.720,-0.700,-0.510,0.080,-0.430
2.722,-0.690,-0.510,0.080,-0.420
2.724,-0.680,-0.500,0.090,-0.400
2.726,-0.670,-0.500,0.090,-0.400
2.728,-0.660,-0.500,0.100,-0.410
2.730,-0.650,-0.500,0.090,-0.420
2.732,-0.640,-0.470,0.090,-0.410
2.734,-0.620,-0.460,0.080,-0.390
2.736,-0.600,-0.460,0.090,-0.360
2.738,-0.580,-0.470,0.110,-0.340
2.740,-0.570,-0.470,0.110,-0.320
2.742,-0.570,-0.470,0.110,-0.310
2.744,-0.580,-0.460,0.110,-0.300
2.746,-0.590,-0.440,0.110,-0.310
2.748,-0.580,-0.430,0.110,-0.310
2.750,-0.570,-0.450,0.130,-0.280
2.752,-0.550,-0.460,0.130,-0.260
2.754,-0.540,-0.470,0.140,-0.240
2.756,-0.530,-0.470,0.150,-0.220
2.758,-0.530,-0.460,0.160,-0.220
2.760,-0.540,-0.440,0.150,-0.240
2.762,-0.540,-0.440,0.160,-0.230
2.764,-0.520,-0.460,0.180,-0.200
2.766,-0.500,-0.460,0.190,-0.170
2.768,-0.480,-0.470,0.190,-0.160
2.770,-0.470,-0.480,0.210,-0.150
2.772,-0.470,-0.490,0.230,-0.130
2.774,-0.490,-0.490,0.240,-0.120
2.776,-0.500,-0.480,0.250,-0.100
2.778,-0.490,-0.490,0.260,-0.070
2.780,-0.480,-0.500,0.260,-0.040
2.782,-0.470,-0.520,0.280,-0.020
2.784,-0.460,-0.540,0.300,0.000
2.786,-0.450,-0.550,0.320,0.000
2.788,-0.440,-0.560,0.330,0.000
2.790,-0.440,-0.560,0.340,-0.010
2.792,-0.460,-0.570,0.360,0.000
2.794,-0.460,-0.570,0.370,0.020
2.796,-0.460,-0.570,0.370,0.030
2.798,-0.450,-0.570,0.380,0.050
2.800,-0.430,-0.570,0.390,0.060
2.802,-0.430,-0.550,0.390,0.050
2.804,-0.430,-0.540,0.400,0.040
2.806,-0.420,-0.540,0.410,0.050
2.808,-0.410,-0.540,0.400,0.060
2.810,-0.410,-0.530,0.390,0.060
2.812,-0.420,-0.530,0.370,0.060
2.814,-0.400,-0.530,0.370,0.060
2.816,-0.400,-0.510,0.380,0.060
2.818,-0.400,-0.510,0.380,0.060
2.820,-0.390,-0.520,0.370,0.050
2.822,-0.380,-0.520,0.360,0.050
2.824,-0.370,-0.500,0.350,0.040
2.826,-0.360,-0.480,0.320,0.040
2.828,-0.350,-0.460,0.300,0.020
2.830,-0.350,-0.410,0.240,-0.010
2.832,-0.360,-0.380,0.210,-0.030
2.834,-0.340,-0.370,0.200,-0.030
2.836,-0.320,-0.360,0.200,-0.030
2.838,-0.300,-0.330,0.180,-0.040
2.840,-0.300,-0.310,0.160,-0.040
2.842,-0.290,-0.280,0.140,-0.050
2.844,-0.300,-0.230,0.110,-0.080
2.846,-0.280,-0.200,0.080,-0.080
2.848,-0.250,-0.190,0.040,-0.080
2.850,-0.210,-0.170,0.010,-0.090
2.852,-0.200,-0.150,0.000,-0.100
2.854,-0.170,-0.120,-0.030,-0.130
2.856,-0.150,-0.080,-0.070,-0.150
2.858,-0.150,-0.040,-0.100,-0.160
2.860,-0.140,0.000,-0.120,-0.170
2.862,-0.110,0.020,-0.140,-0.160
2.864,-0.090,0.040,-0.160,-0.150
2.866,-0.060,0.050,-0.170,-0.160
2.868,-0.050,0.060,-0.180,-0.160
2.870,-0.030,0.090,-0.200,-0.170
2.872,-0.020,0.140,-0.220,-0.190
2.874,-0.020,0.180,-0.240,-0.200
2.876,-0.010,0.190,-0.260,-0.210
2.878,0.000,0.190,-0.270,-0.210
2.880,0.030,0.200,-0.280,-0.200
2.882,0.040,0.200,-0.290,-0.190
2.884,0.050,0.210,-0.290,-0.190
2.886,0.050,0.230,-0.290,-0.200
2.888,0.060,0.230,-0.300,-0.220
2.890,0.060,0.230,-0.310,-0.220
2.892,0.040,0.230,-0.310,-0.220
2.894,0.030,0.230,-0.290,-0.200
2.896,0.040,0.230,-0.280,-0.170
2.898,0.050,0.230,-0.280,-0.160
2.900,0.060,0.240,-0.290,-0.170
2.902,0.060,0.250,-0.290,-0.170
2.904,0.070,0.250,-0.290,-0.170
2.906,0.080,0.240,-0.280,-0.150
2.908,0.080,0.240,-0.280,-0.150
2.910,0.070,0.230,-0.270,-0.140
2.912,0.070,0.230,-0.260,-0.130
2.914,0.050,0.260,-0.270,-0.140
2.916,0.030,0.260,-0.280,-0.150
2.918,0.040,0.240,-0.260,-0.130
2.920,0.030,0.220,-0.250,-0.120
2.922,0.020,0.200,-0.240,-0.110
2.924,0.020,0.190,-0.240,-0.110
2.926,0.020,0.190,-0.230,-0.110
2.928,0.000,0.200,-0.230,-0.120
2.930,0.010,0.190,-0.230,-0.110
2.932,0.020,0.180,-0.220,-0.080
2.934,0.030,0.170,-0.220,-0.060
2.936,0.030,0.150,-0.230,-0.090
2.938,0.030,0.140,-0.230,-0.100
2.940,0.030,0.140,-0.220,-0.100
2.942,0.000,0.160,-0.210,-0.110
2.944,0.000,0.160,-0.210,-0.110
2.946,0.010,0.150,-0.190,-0.090
2.948,0.010,0.150,-0.180,-0.070
2.950,0.010,0.140,-0.180,-0.040
2.952,0.010,0.140,-0.180,-0.030
2.954,0.010,0.120,-0.180,-0.030
2.956,0.000,0.130,-0.200,-0.050
2.958,-0.010,0.140,-0.210,-0.060
2.960,0.000,0.140,-0.210,-0.050
2.962,0.000,0.130,-0.200,-0.040
2.964,0.010,0.120,-0.180,-0.020
2.966,0.020,0.120,-0.160,0.000
2.968,0.040,0.130,-0.140,0.000
2.970,0.040,0.150,-0.150,-0.020
2.972,0.030,0.150,-0.160,-0.030
2.974,0.030,0.150,-0.160,-0.020
2.976,0.050,0.150,-0.140,0.000
2.978,0.050,0.150,-0.130,-0.010
2.980,0.050,0.140,-0.130,-0.010
2.982,0.060,0.140,-0.130,0.000
2.984,0.070,0.150,-0.130,0.010
2.986,0.070,0.160,-0.130,0.000
2.988,0.090,0.150,-0.130,0.000
2.990,0.090,0.130,-0.130,0.000
2.992,0.080,0.130,-0.130,0.010
2.994,0.080,0.120,-0.130,0.030
2.996,0.080,0.110,-0.120,0.030
2.998,0.080,0.130,-0.100,0.030
3.000,0.060,0.150,-0.090,0.020
3.002,0.070,0.160,-0.080,0.010
3.004,0.090,0.140,-0.070,0.020
3.006,0.100,0.130,-0.060,0.040
3.008,0.100,0.120,-0.070,0.060
3.010,0.090,0.120,-0.080,0.060
3.012,0.070,0.120,-0.110,0.060
3.014,0.070,0.130,-0.110,0.060
3.016,0.070,0.110,-0.090,0.070
3.018,0.080,0.100,-0.090,0.080
3.020,0.100,0.090,-0.090,0.070
3.022,0.110,0.090,-0.090,0.060
3.024,0.110,0.100,-0.100,0.070
3.026,0.100,0.120,-0.090,0.060
3.028,0.090,0.120,-0.080,0.050
3.030,0.080,0.110,-0.070,0.060
3.032,0.080,0.110,-0.060,0.070
3.034,0.090,0.110,-0.050,0.080
3.036,0.090,0.110,-0.050,0.090
3.038,0.080,0.100,-0.050,0.090
3.040,0.080,0.110,-0.060,0.060
3.042,0.070,0.130,-0.060,0.040
3.044,0.070,0.130,-0.060,0.040
3.046,0.070,0.130,-0.050,0.060
3.048,0.080,0.120,-0.040,0.080
3.050,0.090,0.120,-0.040,0.080
3.052,0.100,0.120,-0.050,0.080
3.054,0.100,0.130,-0.050,0.070
3.056,0.090,0.130,-0.040,0.060
3.058,0.070,0.120,-0.040,0.070
3.060,0.070,0.120,-0.040,0.070
3.062,0.080,0.110,-0.030,0.060
3.064,0.090,0.090,-0.020,0.050
3.066,0.090,0.080,-0.010,0.060
3.068,0.100,0.070,-0.020,0.070
3.070,0.090,0.080,-0.020,0.060
3.072,0.080,0.060,-0.020,0.050
3.074,0.080,0.050,-0.020,0.040
3.076,0.070,0.050,-0.020,0.030
3.078,0.070,0.050,0.000,0.040
3.080,0.070,0.050,0.000,0.050
3.082,0.070,0.050,-0.010,0.050
3.084,0.060,0.060,-0.020,0.040
3.086,0.060,0.050,-0.020,0.050
3.088,0.060,0.050,-0.010,0.060
3.090,0.060,0.050,0.000,0.050
3.092,0.050,0.060,0.000,0.040
3.094,0.050,0.060,0.000,0.040
3.096,0.050,0.070,0.000,0.040
3.098,0.050,0.080,0.000,0.030
3.100,0.060,0.070,0.000,0.060
3.102,0.060,0.070,0.000,0.060
3.104,0.080,0.080,0.000,0.060
3.106,0.090,0.080,0.010,0.050
3.108,0.070,0.060,0.010,0.050
3.110,0.060,0.060,0.000,0.030
3.112,0.050,0.070,0.000,0.000
3.114,0.050,0.070,0.000,0.010
3.116,0.060,0.060,0.000,0.030
3.118,0.070,0.050,0.010,0.040
3.120,0.070,0.050,0.000,0.040
3.122,0.080,0.050,0.000,0.050
3.124,0.080,0.060,-0.010,0.040
3.126,0.070,0.070,-0.020,0.030
3.128,0.060,0.080,-0.030,0.020
3.130,0.070,0.080,-0.040,0.020
3.132,0.070,0.070,-0.030,0.040
3.134,0.080,0.050,-0.010,0.060
3.136,0.080,0.040,0.000,0.060
3.138,0.060,0.050,0.000,0.060
3.140,0.050,0.060,-0.010,0.050
3.142,0.040,0.070,-0.010,0.040
3.144,0.050,0.070,-0.010,0.050
3.146,0.070,0.050,0.000,0.060
3.148,0.080,0.050,0.000,0.070
3.150,0.070,0.050,0.000,0.090
3.152,0.070,0.050,0.010,0.070
3.154,0.060,0.070,0.000,0.030
3.156,0.050,0.070,0.000,0.030
3.158,0.050,0.070,-0.010,0.020
3.160,0.050,0.060,-0.010,0.020
3.162,0.070,0.040,0.000,0.030
3.164,0.070,0.030,0.000,0.060
3.166,0.060,0.040,0.000,0.050
3.168,0.050,0.050,-0.010,0.040
3.170,0.070,0.050,0.000,0.030
3.172,0.090,0.050,0.000,0.040
3.174,0.090,0.050,0.010,0.040
3.176,0.090,0.050,0.020,0.040
3.178,0.090,0.050,0.020,0.050
3.180,0.100,0.070,0.020,0.050
3.182,0.090,0.080,0.010,0.030
3.184,0.080,0.070,0.000,0.030
3.186,0.080,0.060,0.000,0.040
3.188,0.070,0.050,0.000,0.050
3.190,0.060,0.040,0.000,0.060
3.192,0.050,0.040,0.000,0.050
3.194,0.050,0.050,-0.010,0.030
3.196,0.050,0.070,0.000,0.020
3.198,0.060,0.070,0.000,0.030
3.200,0.060,0.060,0.010,0.040
3.202,0.070,0.050,0.010,0.040
3.204,0.070,0.050,0.010,0.040
3.206,0.060,0.060,0.000,0.040
3.208,0.040,0.060,-0.010,0.020
3.210,0.020,0.090,-0.040,-0.020
3.212,0.020,0.090,-0.050,-0.040
3.214,0.040,0.090,-0.060,-0.020
3.216,0.060,0.090,-0.060,0.010
3.218,0.080,0.080,-0.050,0.030
3.220,0.070,0.060,-0.050,0.030
3.222,0.060,0.060,-0.050,0.020
3.224,0.050,0.070,-0.060,0.000
3.226,0.040,0.070,-0.050,-0.010
3.228,0.040,0.080,-0.050,0.000
3.230,0.050,0.090,-0.050,0.010
3.232,0.040,0.090,-0.050,0.010
3.234,0.030,0.090,-0.070,0.010
3.236,0.050,0.100,-0.070,0.000
3.238,0.060,0.130,-0.080,-0.020
3.240,0.060,0.130,-0.080,-0.020
3.242,0.060,0.140,-0.090,-0.020
3.244,0.060,0.140,-0.090,-0.020
3.246,0.070,0.130,-0.080,0.000
3.248,0.080,0.130,-0.070,0.010
3.250,0.080,0.130,-0.070,0.030
3.252,0.080,0.140,-0.070,0.030
3.254,0.090,0.140,-0.080,0.020
3.256,0.100,0.130,-0.080,0.030
3.258,0.090,0.130,-0.070,0.030
3.260,0.090,0.110,-0.070,0.030
3.262,0.090,0.090,-0.050,0.040
3.264,0.100,0.070,-0.030,0.050
3.266,0.100,0.080,-0.040,0.050
3.268,0.120,0.060,-0.030,0.050
3.270,0.140,0.050,-0.030,0.050
3.272,0.140,0.040,-0.020,0.060
3.274,0.120,0.050,-0.030,0.060
3.276,0.100,0.050,-0.030,0.060
3.278,0.100,0.050,-0.020,0.060
3.280,0.080,0.070,-0.020,0.050
3.282,0.080,0.060,-0.020,0.050
3.284,0.090,0.050,-0.020,0.070
3.286,0.080,0.030,-0.010,0.070
3.288,0.080,0.010,0.000,0.080
3.290,0.080,0.000,0.010,0.080
3.292,0.080,0.000,0.030,0.070
3.294,0.070,0.000,0.030,0.050
3.296,0.070,0.000,0.020,0.040
3.298,0.080,0.000,0.020,0.060
3.300,0.090,-0.010,0.020,0.080
3.302,0.090,-0.010,0.010,0.080
3.304,0.090,-0.010,0.020,0.090
3.306,0.080,-0.010,0.030,0.100
3.308,0.060,0.020,0.020,0.090
3.310,0.050,0.020,0.010,0.090
3.312,0.060,0.000,0.010,0.100
3.314,0.050,0.000,0.020,0.110
3.316,0.040,0.000,0.030,0.130
3.318,0.050,0.000,0.030,0.130
3.320,0.070,0.000,0.030,0.110
3.322,0.060,0.010,0.020,0.070
3.324,0.040,0.000,0.010,0.070
3.326,0.020,-0.020,0.020,0.080
3.328,0.000,-0.070,0.040,0.070
3.330,-0.010,-0.120,0.070,0.060
3.332,-0.060,-0.170,0.090,0.070
3.334,-0.120,-0.230,0.120,0.070
3.336,-0.170,-0.240,0.130,0.030
3.338,-0.170,-0.210,0.110,0.010
3.340,-0.110,-0.150,0.090,0.040
3.342,0.050,-0.010,0.070,0.120
3.344,0.320,0.200,0.050,0.260
3.346,0.670,0.460,0.020,0.450
3.348,1.090,0.740,0.030,0.730
3.350,1.590,1.050,0.110,1.080
3.352,2.140,1.360,0.200,1.500
3.354,2.720,1.690,0.290,1.930
3.356,3.300,2.030,0.360,2.370
3.358,3.880,2.380,0.430,2.810
3.360,4.460,2.720,0.480,3.240
3.362,4.970,3.000,0.550,3.630
3.364,5.350,3.200,0.620,3.940
3.366,5.580,3.270,0.680,4.130
3.368,5.660,3.250,0.690,4.200
3.370,5.570,3.140,0.670,4.130
3.372,5.250,2.910,0.620,3.890
3.374,4.710,2.580,0.490,3.440
3.376,4.000,2.200,0.330,2.850
3.378,3.250,1.840,0.180,2.230
3.380,2.560,1.480,0.080,1.730
3.382,1.970,1.130,0.030,1.320
3.384,1.460,0.810,0.010,0.970
3.386,1.030,0.530,0.000,0.670
3.388,0.650,0.290,-0.020,0.410
3.390,0.320,0.090,-0.030,0.190
3.392,0.040,-0.050,-0.040,0.000
3.394,-0.200,-0.180,-0.040,-0.160
3.396,-0.410,-0.300,-0.030,-0.280
3.398,-0.580,-0.420,-0.030,-0.380
3.400,-0.720,-0.520,-0.040,-0.450
3.402,-0.820,-0.600,-0.040,-0.510
3.404,-0.920,-0.670,-0.030,-0.570
3.406,-1.030,-0.710,-0.020,-0.650
3.408,-1.110,-0.730,-0.030,-0.720
3.410,-1.150,-0.760,-0.030,-0.740
3.412,-1.180,-0.780,-0.020,-0.760
3.414,-1.200,-0.800,-0.010,-0.770
3.416,-1.210,-0.810,0.000,-0.760
3.418,-1.210,-0.810,0.010,-0.750
3.420,-1.220,-0.800,0.000,-0.770
3.422,-1.230,-0.790,0.000,-0.770
3.424,-1.220,-0.800,0.010,-0.750
3.426,-1.220,-0.800,0.020,-0.740
3.428,-1.210,-0.810,0.030,-0.740
3.430,-1.200,-0.800,0.040,-0.740
3.432,-1.190,-0.790,0.050,-0.710
3.434,-1.180,-0.780,0.050,-0.690
3.436,-1.160,-0.770,0.060,-0.690
3.438,-1.120,-0.770,0.070,-0.680
3.440,-1.100,-0.770,0.070,-0.670
3.442,-1.090,-0.760,0.070,-0.660
3.444,-1.070,-0.750,0.060,-0.650
3.446,-1.040,-0.740,0.070,-0.630
3.448,-1.030,-0.710,0.070,-0.640
3.450,-1.020,-0.690,0.070,-0.630
3.452,-1.000,-0.680,0.070,-0.610
3.454,-0.970,-0.680,0.080,-0.590
3.456,-0.940,-0.700,0.080,-0.580
3.458,-0.930,-0.690,0.090,-0.570
3.460,-0.930,-0.680,0.090,-0.550
3.462,-0.910,-0.660,0.100,-0.550
3.464,-0.890,-0.650,0.110,-0.540
3.466,-0.870,-0.640,0.110,-0.510
3.468,-0.830,-0.630,0.110,-0.490
3.470,-0.810,-0.630,0.120,-0.470
3.472,-0.810,-0.630,0.130,-0.470
3.474,-0.810,-0.620,0.130,-0.470
3.476,-0.810,-0.590,0.130,-0.470
3.478,-0.800,-0.570,0.130,-0.470
3.480,-0.780,-0.570,0.140,-0.440
3.482,-0.760,-0.570,0.150,-0.410
3.484,-0.740,-0.570,0.160,-0.390
3.486,-0.710,-0.560,0.160,-0.390
3.488,-0.680,-0.550,0.150,-0.390
3.490,-0.680,-0.520,0.130,-0.400
3.492,-0.690,-0.500,0.120,-0.410
3.494,-0.660,-0.500,0.120,-0.400
3.496,-0.640,-0.500,0.120,-0.370
3.498,-0.620,-0.500,0.130,-0.350
3.500,-0.610,-0.500,0.140,-0.320
3.502,-0.610,-0.500,0.150,-0.310
3.504,-0.610,-0.490,0.150,-0.320
3.506,-0.610,-0.470,0.140,-0.320
3.508,-0.600,-0.480,0.140,-0.300
3.510,-0.600,-0.490,0.150,-0.290
3.512,-0.600,-0.510,0.160,-0.270
3.514,-0.580,-0.520,0.170,-0.250
3.516,-0.560,-0.520,0.180,-0.220
3.518,-0.540,-0.510,0.190,-0.210
3.520,-0.540,-0.500,0.190,-0.240
3.522,-0.530,-0.500,0.210,-0.240
3.524,-0.530,-0.510,0.220,-0.230
3.526,-0.540,-0.510,0.220,-0.220
3.528,-0.530,-0.530,0.240,-0.190
3.530,-0.510,-0.560,0.250,-0.170
3.532,-0.520,-0.560,0.260,-0.160
3.534,-0.530,-0.560,0.260,-0.160
3.536,-0.530,-0.570,0.270,-0.130
3.538,-0.540,-0.590,0.290,-0.100
3.540,-0.540,-0.600,0.300,-0.080
3.542,-0.540,-0.610,0.320,-0.070
3.544,-0.540,-0.620,0.340,-0.070
3.546,-0.520,-0.620,0.360,-0.050
3.548,-0.510,-0.610,0.370,-0.030
3.550,-0.490,-0.590,0.370,0.000
3.552,-0.470,-0.590,0.380,0.010
3.554,-0.460,-0.590,0.390,0.030
3.556,-0.450,-0.590,0.400,0.040
3.558,-0.450,-0.590,0.410,0.050
3.560,-0.450,-0.580,0.410,0.040
3.562,-0.450,-0.570,0.410,0.030
3.564,-0.440,-0.570,0.420,0.040
3.566,-0.420,-0.580,0.420,0.060
3.568,-0.400,-0.580,0.430,0.060
3.570,-0.390,-0.580,0.430,0.080
3.572,-0.370,-0.580,0.420,0.080
3.574,-0.380,-0.550,0.390,0.070
3.576,-0.400,-0.500,0.360,0.040
3.578,-0.390,-0.470,0.340,0.030
3.580,-0.360,-0.460,0.330,0.030
3.582,-0.340,-0.470,0.330,0.040
3.584,-0.320,-0.460,0.330,0.040
3.586,-0.300,-0.440,0.320,0.030
3.588,-0.290,-0.420,0.290,0.010
3.590,-0.280,-0.390,0.270,0.000
3.592,-0.260,-0.360,0.240,-0.010
3.594,-0.270,-0.330,0.210,-0.030
3.596,-0.250,-0.300,0.180,-0.040
3.598,-0.220,-0.280,0.150,-0.040
3.600,-0.210,-0.250,0.110,-0.040
3.602,-0.210,-0.210,0.080,-0.080
3.604,-0.200,-0.170,0.040,-0.110
3.606,-0.170,-0.140,0.000,-0.130
3.608,-0.150,-0.100,-0.040,-0.140
3.610,-0.140,-0.070,-0.070,-0.160
3.612,-0.110,-0.030,-0.090,-0.180
3.614,-0.080,0.000,-0.100,-0.170
3.616,-0.060,0.050,-0.130,-0.180
3.618,-0.050,0.110,-0.190,-0.220
3.620,-0.030,0.130,-0.200,-0.220
3.622,0.010,0.140,-0.200,-0.200
3.624,0.040,0.160,-0.210,-0.200
3.626,0.050,0.180,-0.230,-0.210
3.628,0.070,0.200,-0.250,-0.220
3.630,0.100,0.210,-0.260,-0.230
3.632,0.100,0.240,-0.270,-0.230
3.634,0.100,0.250,-0.290,-0.230
3.636,0.100,0.260,-0.300,-0.220
3.638,0.110,0.250,-0.310,-0.220
3.640,0.110,0.260,-0.310,-0.210
3.642,0.100,0.270,-0.320,-0.200
3.644,0.090,0.290,-0.340,-0.220
3.646,0.090,0.300,-0.340,-0.230
3.648,0.110,0.300,-0.320,-0.230
3.650,0.130,0.300,-0.320,-0.210
3.652,0.140,0.300,-0.310,-0.210
3.654,0.150,0.290,-0.300,-0.200
3.656,0.160,0.290,-0.310,-0.200
3.658,0.140,0.300,-0.320,-0.200
3.660,0.110,0.320,-0.330,-0.230
3.662,0.110,0.330,-0.320,-0.250
3.664,0.120,0.320,-0.320,-0.240
3.666,0.120,0.310,-0.300,-0.210
3.668,0.120,0.300,-0.290,-0.200
3.670,0.120,0.290,-0.280,-0.200
3.672,0.120,0.280,-0.280,-0.190
3.674,0.110,0.290,-0.290,-0.190
3.676,0.110,0.280,-0.300,-0.190
3.678,0.110,0.260,-0.310,-0.180
3.680,0.110,0.250,-0.310,-0.160
3.682,0.130,0.240,-0.310,-0.140
3.684,0.130,0.230,-0.300,-0.120
3.686,0.130,0.220,-0.290,-0.140
3.688,0.110,0.260,-0.300,-0.170
3.690,0.090,0.260,-0.300,-0.170
3.692,0.090,0.250,-0.300,-0.160
3.694,0.090,0.250,-0.300,-0.140
3.696,0.090,0.250,-0.290,-0.130
3.698,0.100,0.240,-0.280,-0.120
3.700,0.110,0.220,-0.260,-0.120
3.702,0.090,0.230,-0.260,-0.160
3.704,0.080,0.240,-0.260,-0.170
3.706,0.080,0.230,-0.250,-0.160
3.708,0.090,0.220,-0.250,-0.160
3.710,0.090,0.220,-0.250,-0.150
3.712,0.100,0.210,-0.250,-0.140
3.714,0.110,0.200,-0.250,-0.120
3.716,0.110,0.220,-0.250,-0.100
3.718,0.130,0.220,-0.250,-0.100
3.720,0.130,0.200,-0.250,-0.090
3.722,0.120,0.180,-0.240,-0.080
3.724,0.100,0.170,-0.240,-0.070
3.726,0.090,0.160,-0.240,-0.060
3.728,0.100,0.170,-0.240,-0.050
3.730,0.100,0.200,-0.230,-0.070
3.732,0.100,0.200,-0.220,-0.070
3.734,0.110,0.190,-0.210,-0.060
3.736,0.110,0.170,-0.200,-0.050
3.738,0.110,0.160,-0.180,-0.050
3.740,0.110,0.160,-0.170,-0.040
3.742,0.100,0.160,-0.180,-0.030
3.744,0.100,0.160,-0.190,-0.030
3.746,0.100,0.160,-0.180,-0.010
3.748,0.110,0.160,-0.170,0.000
3.750,0.110,0.150,-0.150,0.020
3.752,0.110,0.130,-0.130,0.020
3.754,0.110,0.110,-0.130,0.020
3.756,0.110,0.130,-0.130,0.010
3.758,0.100,0.140,-0.130,0.010
3.760,0.100,0.150,-0.130,0.010
3.762,0.120,0.150,-0.110,0.020
3.764,0.140,0.150,-0.110,0.040
3.766,0.140,0.130,-0.110,0.060
3.768,0.160,0.120,-0.110,0.070
3.770,0.180,0.120,-0.110,0.060
3.772,0.170,0.150,-0.110,0.040
3.774,0.150,0.150,-0.110,0.040
3.776,0.130,0.140,-0.110,0.050
3.778,0.120,0.130,-0.100,0.060
3.780,0.120,0.120,-0.090,0.070
3.782,0.110,0.110,-0.080,0.080
3.784,0.120,0.100,-0.070,0.080
3.786,0.130,0.120,-0.070,0.070
3.788,0.120,0.130,-0.060,0.070
3.790,0.110,0.110,-0.040,0.070
3.792,0.110,0.110,-0.050,0.070
3.794,0.110,0.110,-0.060,0.070
3.796,0.120,0.100,-0.060,0.080
3.798,0.130,0.100,-0.040,0.080
3.800,0.120,0.120,-0.030,0.070
3.802,0.110,0.110,-0.030,0.070
3.804,0.110,0.110,-0.040,0.070
3.806,0.110,0.110,-0.040,0.070
3.808,0.100,0.110,-0.020,0.070
3.810,0.100,0.110,-0.010,0.070
3.812,0.100,0.090,-0.010,0.080
3.814,0.100,0.090,-0.010,0.070
3.816,0.090,0.090,-0.030,0.080
3.818,0.100,0.070,-0.030,0.090
3.820,0.110,0.060,-0.030,0.090
3.822,0.110,0.060,-0.020,0.090
3.824,0.100,0.050,-0.010,0.090
3.826,0.090,0.040,0.000,0.080
3.828,0.090,0.040,-0.010,0.060
3.830,0.080,0.040,-0.020,0.040
3.832,0.090,0.040,-0.010,0.050
3.834,0.080,0.030,0.000,0.060
3.836,0.090,0.040,0.000,0.060
3.838,0.100,0.030,0.000,0.070
3.840,0.100,0.020,0.000,0.080
3.842,0.080,0.030,0.000,0.070
3.844,0.070,0.040,0.000,0.050
3.846,0.060,0.050,0.000,0.050
3.848,0.050,0.040,0.010,0.060
3.850,0.060,0.030,0.010,0.080
3.852,0.060,0.020,0.010,0.070
3.854,0.050,0.030,0.010,0.060
3.856,0.040,0.050,0.010,0.040
3.858,0.030,0.060,0.000,0.030
3.860,0.040,0.060,0.010,0.040
3.862,0.060,0.050,0.020,0.050
3.864,0.070,0.040,0.030,0.070
3.866,0.070,0.030,0.030,0.090
3.868,0.070,0.040,0.030,0.090
3.870,0.060,0.060,0.020,0.070
3.872,0.040,0.070,0.000,0.060
3.874,0.040,0.070,0.010,0.060
3.876,0.040,0.060,0.020,0.070
3.878,0.040,0.060,0.030,0.070
3.880,0.050,0.050,0.040,0.080
3.882,0.060,0.040,0.040,0.090
3.884,0.070,0.040,0.030,0.090
3.886,0.060,0.040,0.020,0.080
3.888,0.070,0.030,0.010,0.080
3.890,0.070,0.020,0.010,0.090
3.892,0.070,0.010,0.000,0.100
3.894,0.070,0.010,0.010,0.090
3.896,0.060,0.010,0.020,0.080
3.898,0.070,0.020,0.000,0.070
3.900,0.080,0.020,0.000,0.080
3.902,0.080,0.020,0.000,0.080
3.904,0.070,0.010,0.010,0.080
3.906,0.070,0.000,0.020,0.080
3.908,0.060,0.000,0.020,0.080
3.910,0.050,0.000,0.010,0.070
3.912,0.040,0.010,0.000,0.050
3.914,0.040,0.020,0.010,0.050
3.916,0.050,0.020,0.020,0.060
3.918,0.060,0.020,0.020,0.060
3.920,0.060,0.010,0.020,0.050
3.922,0.050,0.010,0.010,0.040
3.924,0.040,0.020,0.010,0.030
3.926,0.030,0.030,0.010,0.020
3.928,0.020,0.050,0.000,0.010
3.930,0.020,0.050,0.010,0.010
3.932,0.020,0.050,0.010,0.040
3.934,0.020,0.040,0.010,0.050
3.936,0.030,0.030,0.020,0.050
3.938,0.040,0.040,0.020,0.050
3.940,0.030,0.040,0.010,0.040
3.942,0.000,0.050,0.000,0.020
3.944,0.000,0.040,0.000,0.010
3.946,0.010,0.020,0.000,0.030
3.948,0.010,0.010,0.000,0.050
3.950,0.030,0.010,0.020,0.050
3.952,0.030,0.010,0.020,0.050
3.954,0.030,0.020,0.010,0.050
3.956,0.010,0.020,0.010,0.040
3.958,0.000,0.020,0.000,0.030
3.960,0.000,0.010,0.000,0.020
3.962,0.000,0.010,0.000,0.020
3.964,0.010,0.000,0.000,0.030
3.966,0.010,0.000,0.010,0.030
3.968,0.000,0.000,0.010,0.020
3.970,0.000,0.010,0.000,0.000
3.972,-0.010,0.010,0.000,0.000
3.974,-0.020,0.010,0.000,0.000
3.976,-0.020,0.020,0.000,0.000
3.978,-0.010,0.020,0.000,0.000
3.980,0.000,0.010,0.000,0.000
3.982,0.000,0.010,0.000,0.000
3.984,0.000,0.030,-0.010,0.000
3.986,0.000,0.030,-0.030,-0.010
3.988,0.000,0.020,-0.040,-0.010
3.990,0.010,0.020,-0.040,0.000
3.992,0.010,0.040,-0.050,-0.010
3.994,0.010,0.050,-0.040,-0.010
3.996,0.020,0.060,-0.040,-0.030
3.998,0.020,0.080,-0.030,-0.050
4.000,0.040,0.060,-0.030,-0.040
4.002,0.050,0.050,-0.030,-0.030
4.004,0.060,0.040,-0.040,-0.030
4.006,0.070,0.040,-0.040,-0.050
4.008,0.070,0.040,-0.050,-0.060
4.010,0.060,0.060,-0.070,-0.080
4.012,0.060,0.080,-0.070,-0.090
4.014,0.080,0.080,-0.060,-0.070
4.016,0.100,0.080,-0.070,-0.040
4.018,0.100,0.080,-0.070,-0.030
4.020,0.110,0.090,-0.070,-0.030
4.022,0.120,0.090,-0.070,-0.030
4.024,0.100,0.080,-0.070,-0.020
4.026,0.080,0.080,-0.060,-0.020
4.028,0.080,0.080,-0.040,-0.020
4.030,0.090,0.070,-0.030,-0.010
4.032,0.110,0.070,-0.020,0.000
4.034,0.130,0.070,0.000,0.010
4.036,0.140,0.070,0.000,0.010
4.038,0.140,0.060,0.000,0.010
4.040,0.120,0.070,-0.010,0.000
4.042,0.110,0.080,-0.020,0.000
4.044,0.120,0.070,-0.030,0.000
4.046,0.130,0.060,-0.020,0.010
4.048,0.130,0.050,0.000,0.010
4.050,0.130,0.050,0.000,0.010
4.052,0.130,0.050,0.000,0.010
4.054,0.120,0.050,-0.010,0.000
4.056,0.110,0.050,0.000,0.000
4.058,0.100,0.050,-0.010,0.000
4.060,0.100,0.050,-0.010,0.000
4.062,0.100,0.040,-0.010,0.010
4.064,0.090,0.030,0.000,0.010
4.066,0.090,0.050,0.010,0.000
4.068,0.090,0.070,0.010,-0.020
4.070,0.100,0.060,0.010,-0.020
4.072,0.100,0.050,0.020,-0.020
4.074,0.100,0.040,0.010,-0.020
4.076,0.100,0.040,0.020,-0.010
4.078,0.100,0.020,0.040,0.000
4.080,0.110,0.010,0.050,0.000
4.082,0.110,0.020,0.050,0.000
4.084,0.110,0.020,0.050,0.010
4.086,0.120,0.020,0.050,0.010
4.088,0.130,0.010,0.050,0.010
4.090,0.120,0.010,0.050,0.010
4.092,0.100,0.000,0.050,0.020
4.094,0.100,0.000,0.040,0.020
4.096,0.090,0.000,0.040,0.020
4.098,0.070,-0.010,0.040,0.040
4.100,0.050,-0.050,0.060,0.060
4.102,0.020,-0.100,0.080,0.050
4.104,-0.010,-0.160,0.120,0.030
4.106,-0.080,-0.210,0.140,0.010
4.108,-0.150,-0.250,0.170,0.000
4.110,-0.170,-0.230,0.160,-0.030
4.112,-0.110,-0.170,0.150,-0.010
4.114,0.050,-0.040,0.130,0.070
4.116,0.310,0.140,0.080,0.190
4.118,0.640,0.380,0.040,0.360
4.120,1.040,0.660,0.030,0.590
4.122,1.510,0.950,0.090,0.930
4.124,2.040,1.270,0.180,1.310
4.126,2.620,1.600,0.270,1.730
4.128,3.220,1.940,0.350,2.190
4.130,3.830,2.290,0.430,2.660
4.132,4.430,2.620,0.500,3.120
4.134,4.960,2.900,0.560,3.550
4.136,5.370,3.100,0.630,3.900
4.138,5.600,3.210,0.670,4.110
4.140,5.690,3.230,0.690,4.210
4.142,5.630,3.150,0.670,4.180
4.144,5.360,2.960,0.610,3.950
4.146,4.840,2.660,0.480,3.510
4.148,4.160,2.290,0.290,2.920
4.150,3.430,1.910,0.110,2.300
4.152,2.740,1.560,0.000,1.740
4.154,2.130,1.230,-0.060,1.290
4.156,1.590,0.910,-0.090,0.920
4.158,1.130,0.640,-0.110,0.600
4.160,0.740,0.400,-0.120,0.340
4.162,0.410,0.190,-0.130,0.130
4.164,0.130,0.000,-0.130,-0.030
4.166,-0.110,-0.140,-0.130,-0.190
4.168,-0.300,-0.280,-0.120,-0.310
4.170,-0.470,-0.390,-0.120,-0.420
4.172,-0.610,-0.490,-0.100,-0.510
4.174,-0.730,-0.570,-0.090,-0.580
4.176,-0.830,-0.630,-0.090,-0.640
4.178,-0.910,-0.680,-0.080,-0.690
4.180,-0.990,-0.710,-0.080,-0.740
4.182,-1.030,-0.730,-0.070,-0.750
4.184,-1.050,-0.760,-0.050,-0.740
4.186,-1.080,-0.780,-0.050,-0.750
4.188,-1.110,-0.790,-0.040,-0.750
4.190,-1.110,-0.800,-0.040,-0.750
4.192,-1.120,-0.800,-0.040,-0.760
4.194,-1.130,-0.780,-0.040,-0.770
4.196,-1.120,-0.780,-0.040,-0.770
4.198,-1.120,-0.780,-0.020,-0.750
4.200,-1.120,-0.790,0.000,-0.730
4.202,-1.100,-0.790,0.000,-0.730
4.204,-1.070,-0.800,0.000,-0.720
4.206,-1.060,-0.790,0.010,-0.700
4.208,-1.060,-0.760,0.020,-0.690
4.210,-1.050,-0.750,0.030,-0.690
4.212,-1.030,-0.740,0.050,-0.670
4.214,-1.000,-0.740,0.060,-0.650
4.216,-0.970,-0.730,0.060,-0.640
4.218,-0.950,-0.730,0.070,-0.630
4.220,-0.920,-0.730,0.070,-0.620
4.222,-0.910,-0.710,0.060,-0.610
4.224,-0.910,-0.690,0.050,-0.610
4.226,-0.910,-0.690,0.050,-0.600
4.228,-0.890,-0.670,0.040,-0.590
4.230,-0.870,-0.670,0.040,-0.580
4.232,-0.850,-0.680,0.050,-0.570
4.234,-0.830,-0.680,0.060,-0.550
4.236,-0.810,-0.650,0.050,-0.560
4.238,-0.800,-0.620,0.040,-0.560
4.240,-0.780,-0.620,0.040,-0.540
4.242,-0.770,-0.620,0.040,-0.520
4.244,-0.750,-0.600,0.040,-0.520
4.246,-0.730,-0.580,0.060,-0.520
4.248,-0.730,-0.570,0.090,-0.490
4.250,-0.710,-0.550,0.110,-0.470
4.252,-0.700,-0.550,0.110,-0.470
4.254,-0.680,-0.540,0.110,-0.470
4.256,-0.670,-0.540,0.100,-0.470
4.258,-0.680,-0.550,0.100,-0.470
4.260,-0.660,-0.540,0.100,-0.470
4.262,-0.640,-0.540,0.100,-0.470
4.264,-0.640,-0.510,0.090,-0.470
4.266,-0.650,-0.490,0.100,-0.440
4.268,-0.630,-0.490,0.110,-0.420
4.270,-0.620,-0.510,0.110,-0.410
4.272,-0.620,-0.520,0.110,-0.390
4.274,-0.620,-0.510,0.110,-0.390
4.276,-0.620,-0.510,0.100,-0.390
4.278,-0.620,-0.500,0.090,-0.400
4.280,-0.610,-0.500,0.090,-0.410
4.282,-0.590,-0.510,0.110,-0.390
4.284,-0.560,-0.510,0.150,-0.360
4.286,-0.550,-0.520,0.160,-0.350
4.288,-0.540,-0.530,0.170,-0.330
4.290,-0.540,-0.540,0.180,-0.310
4.292,-0.550,-0.530,0.180,-0.310
4.294,-0.560,-0.510,0.180,-0.300
4.296,-0.550,-0.510,0.190,-0.270
4.298,-0.530,-0.530,0.200,-0.240
4.300,-0.520,-0.560,0.210,-0.220
4.302,-0.510,-0.580,0.220,-0.210
4.304,-0.500,-0.600,0.240,-0.200
4.306,-0.500,-0.590,0.250,-0.210
4.308,-0.510,-0.590,0.260,-0.200
4.310,-0.510,-0.590,0.270,-0.190
4.312,-0.510,-0.600,0.280,-0.160
4.314,-0.510,-0.610,0.300,-0.130
4.316,-0.490,-0.600,0.320,-0.110
4.318,-0.480,-0.610,0.340,-0.090
4.320,-0.480,-0.610,0.360,-0.080
4.322,-0.490,-0.600,0.380,-0.080
4.324,-0.490,-0.620,0.370,-0.060
4.326,-0.480,-0.620,0.370,-0.040
4.328,-0.460,-0.620,0.370,-0.010
4.330,-0.460,-0.610,0.390,0.020
4.332,-0.440,-0.620,0.410,0.040
4.334,-0.420,-0.620,0.420,0.040
4.336,-0.410,-0.610,0.420,0.020
4.338,-0.410,-0.600,0.410,0.010
4.340,-0.400,-0.600,0.400,0.020
4.342,-0.400,-0.590,0.400,0.040
4.344,-0.400,-0.580,0.400,0.040
4.346,-0.390,-0.560,0.410,0.040
4.348,-0.360,-0.550,0.400,0.030
4.350,-0.360,-0.530,0.390,0.010
4.352,-0.350,-0.510,0.370,0.000
4.354,-0.340,-0.510,0.350,-0.010
4.356,-0.330,-0.490,0.330,-0.010
4.358,-0.330,-0.480,0.300,-0.010
4.360,-0.320,-0.470,0.290,-0.030
4.362,-0.300,-0.440,0.270,-0.060
4.364,-0.300,-0.400,0.250,-0.080
4.366,-0.270,-0.370,0.220,-0.070
4.368,-0.260,-0.360,0.190,-0.070
4.370,-0.240,-0.330,0.150,-0.070
4.372,-0.210,-0.300,0.110,-0.090
4.374,-0.200,-0.250,0.080,-0.110
4.376,-0.190,-0.200,0.050,-0.140
4.378,-0.180,-0.160,0.000,-0.180
4.380,-0.160,-0.120,-0.020,-0.190
4.382,-0.130,-0.090,-0.040,-0.180
4.384,-0.090,-0.060,-0.070,-0.180
4.386,-0.070,-0.030,-0.100,-0.210
4.388,-0.050,0.000,-0.140,-0.240
4.390,-0.040,0.040,-0.170,-0.250
4.392,-0.050,0.100,-0.190,-0.260
4.394,-0.040,0.130,-0.210,-0.270
4.396,-0.020,0.140,-0.230,-0.270
4.398,0.000,0.150,-0.240,-0.260
4.400,0.010,0.150,-0.250,-0.240
4.402,0.030,0.160,-0.270,-0.250
4.404,0.040,0.180,-0.280,-0.250
4.406,0.050,0.210,-0.290,-0.260
4.408,0.050,0.230,-0.310,-0.270
4.410,0.060,0.240,-0.320,-0.270
4.412,0.080,0.250,-0.320,-0.260
4.414,0.100,0.260,-0.330,-0.260
4.416,0.110,0.260,-0.330,-0.240
4.418,0.110,0.270,-0.340,-0.230
4.420,0.110,0.290,-0.340,-0.250
4.422,0.110,0.280,-0.340,-0.250
4.424,0.110,0.280,-0.330,-0.230
4.426,0.120,0.280,-0.340,-0.230
4.428,0.130,0.280,-0.340,-0.220
4.430,0.130,0.270,-0.330,-0.200
4.432,0.120,0.280,-0.320,-0.190
4.434,0.110,0.290,-0.300,-0.180
4.436,0.120,0.280,-0.280,-0.180
4.438,0.130,0.270,-0.280,-0.180
4.440,0.120,0.270,-0.290,-0.180
4.442,0.100,0.270,-0.290,-0.180
4.444,0.100,0.260,-0.280,-0.180
4.446,0.090,0.260,-0.290,-0.190
4.448,0.060,0.280,-0.300,-0.210
4.450,0.060,0.270,-0.290,-0.200
4.452,0.060,0.250,-0.290,-0.200
4.454,0.070,0.240,-0.280,-0.190
4.456,0.080,0.240,-0.260,-0.180
4.458,0.060,0.240,-0.260,-0.180
4.460,0.040,0.240,-0.260,-0.170
4.462,0.030,0.240,-0.260,-0.160
4.464,0.030,0.220,-0.250,-0.140
4.466,0.040,0.210,-0.250,-0.120
4.468,0.050,0.200,-0.240,-0.110
4.470,0.060,0.190,-0.240,-0.120
4.472,0.070,0.180,-0.230,-0.120
4.474,0.070,0.190,-0.220,-0.130
4.476,0.070,0.190,-0.230,-0.150
4.478,0.070,0.180,-0.210,-0.150
4.480,0.070,0.160,-0.200,-0.140
4.482,0.080,0.150,-0.200,-0.120
4.484,0.090,0.150,-0.190,-0.110
4.486,0.090,0.140,-0.180,-0.110
4.488,0.080,0.150,-0.170,-0.110
4.490,0.050,0.170,-0.200,-0.130
4.492,0.040,0.170,-0.220,-0.120
4.494,0.040,0.170,-0.200,-0.100
4.496,0.050,0.170,-0.200,-0.090
4.498,0.060,0.160,-0.190,-0.080
4.500,0.070,0.150,-0.180,-0.060
4.502,0.080,0.140,-0.170,-0.060
4.504,0.070,0.150,-0.160,-0.070
4.506,0.070,0.140,-0.150,-0.060
4.508,0.070,0.140,-0.150,-0.040
4.510,0.070,0.140,-0.150,-0.040
4.512,0.070,0.140,-0.150,-0.040
4.514,0.070,0.140,-0.150,-0.040
4.516,0.080,0.140,-0.150,-0.030
4.518,0.080,0.150,-0.150,-0.040
4.520,0.080,0.140,-0.140,-0.040
4.522,0.100,0.140,-0.130,-0.020
4.524,0.110,0.150,-0.130,-0.010
4.526,0.110,0.160,-0.130,0.000
4.528,0.110,0.150,-0.140,0.010
4.530,0.120,0.140,-0.130,0.020
4.532,0.120,0.140,-0.140,0.000
4.534,0.120,0.130,-0.140,0.000
4.536,0.120,0.120,-0.140,0.000
4.538,0.120,0.110,-0.130,0.000
4.540,0.120,0.110,-0.130,0.000
4.542,0.120,0.110,-0.130,0.010
4.544,0.110,0.110,-0.140,0.010
4.546,0.110,0.120,-0.140,0.000
4.548,0.120,0.130,-0.130,0.010
4.550,0.150,0.110,-0.110,0.030
4.552,0.170,0.100,-0.090,0.040
4.554,0.180,0.090,-0.070,0.050
4.556,0.180,0.080,-0.060,0.060
4.558,0.170,0.090,-0.070,0.060
4.560,0.160,0.110,-0.090,0.050
4.562,0.160,0.120,-0.090,0.040
4.564,0.160,0.130,-0.090,0.060
4.566,0.170,0.120,-0.080,0.080
4.568,0.180,0.120,-0.060,0.090
4.570,0.190,0.110,-0.050,0.090
4.572,0.190,0.110,-0.050,0.080
4.574,0.190,0.120,-0.060,0.050
4.576,0.170,0.130,-0.060,0.040
4.578,0.170,0.120,-0.040,0.060
4.580,0.180,0.110,-0.030,0.080
4.582,0.180,0.110,-0.030,0.090
4.584,0.190,0.100,-0.030,0.100
4.586,0.180,0.100,-0.040,0.100
4.588,0.180,0.090,-0.040,0.090
4.590,0.170,0.090,-0.040,0.090
4.592,0.150,0.080,-0.040,0.090
4.594,0.140,0.090,-0.050,0.070
4.596,0.150,0.090,-0.050,0.060
4.598,0.150,0.090,-0.030,0.080
4.600,0.160,0.100,-0.020,0.100
4.602,0.160,0.100,-0.030,0.100
4.604,0.160,0.090,-0.030,0.100
4.606,0.160,0.080,-0.040,0.110
4.608,0.150,0.060,-0.040,0.130
4.610,0.140,0.060,-0.040,0.130
4.612,0.140,0.050,-0.040,0.130
4.614,0.130,0.050,-0.030,0.130
4.616,0.120,0.060,-0.030,0.120
4.618,0.120,0.060,-0.030,0.120
4.620,0.120,0.070,-0.030,0.120
4.622,0.110,0.070,-0.030,0.120
4.624,0.100,0.070,-0.030,0.120
4.626,0.090,0.070,-0.040,0.120
4.628,0.090,0.060,-0.040,0.110
4.630,0.090,0.060,-0.040,0.120
4.632,0.090,0.050,-0.030,0.140
4.634,0.100,0.050,-0.020,0.150
4.636,0.100,0.060,-0.020,0.160
4.638,0.120,0.060,-0.020,0.160
4.640,0.120,0.060,-0.020,0.160
4.642,0.110,0.050,-0.020,0.140
4.644,0.110,0.060,-0.010,0.110
4.646,0.100,0.070,-0.010,0.100
4.648,0.110,0.060,0.010,0.130
4.650,0.140,0.040,0.030,0.140
4.652,0.150,0.030,0.030,0.140
4.654,0.160,0.030,0.020,0.130
4.656,0.160,0.040,0.010,0.130
4.658,0.140,0.060,0.000,0.130
4.660,0.130,0.060,0.000,0.130
4.662,0.120,0.040,0.000,0.140
4.664,0.130,0.030,0.010,0.140
4.666,0.130,0.020,0.020,0.150
4.668,0.140,0.030,0.030,0.160
4.670,0.160,0.040,0.010,0.140
4.672,0.170,0.050,0.000,0.120
4.674,0.150,0.060,0.000,0.120
4.676,0.160,0.060,0.000,0.120
4.678,0.170,0.050,0.000,0.110
4.680,0.190,0.040,0.000,0.110
4.682,0.190,0.030,0.010,0.110
4.684,0.210,0.030,0.020,0.120
4.686,0.210,0.030,0.000,0.110
4.688,0.210,0.030,0.000,0.100
4.690,0.210,0.020,0.000,0.100
4.692,0.210,0.020,0.000,0.100
4.694,0.210,0.030,0.000,0.090
4.696,0.220,0.030,-0.020,0.080
4.698,0.220,0.030,-0.020,0.070
4.700,0.220,0.030,-0.020,0.070
4.702,0.220,0.020,-0.010,0.060
4.704,0.210,0.010,-0.020,0.060
4.706,0.200,0.010,-0.020,0.050
4.708,0.180,0.010,-0.020,0.030
4.710,0.170,0.020,-0.020,0.020
4.712,0.180,0.010,-0.020,0.030
4.714,0.180,0.010,-0.020,0.040
4.716,0.190,0.010,-0.030,0.050
4.718,0.200,0.010,-0.030,0.060
4.720,0.210,0.010,-0.040,0.050
4.722,0.200,0.000,-0.050,0.030
4.724,0.190,0.000,-0.070,0.010
4.726,0.180,0.010,-0.080,0.000
4.728,0.190,0.030,-0.090,0.000
4.730,0.200,0.030,-0.090,-0.010
4.732,0.210,0.030,-0.100,-0.010
4.734,0.210,0.030,-0.100,-0.010
4.736,0.210,0.020,-0.110,0.000
4.738,0.220,0.010,-0.110,-0.010
4.740,0.230,0.020,-0.120,-0.030
4.742,0.220,0.040,-0.130,-0.050
4.744,0.230,0.050,-0.150,-0.060
4.746,0.240,0.040,-0.170,-0.060
4.748,0.250,0.030,-0.180,-0.060
4.750,0.260,0.020,-0.190,-0.050
4.752,0.260,0.010,-0.200,-0.060
4.754,0.260,0.010,-0.210,-0.080
4.756,0.270,0.030,-0.220,-0.100
4.758,0.260,0.030,-0.220,-0.120
4.760,0.260,0.030,-0.220,-0.130
4.762,0.270,0.050,-0.220,-0.150
4.764,0.280,0.050,-0.220,-0.150
4.766,0.290,0.060,-0.240,-0.140
4.768,0.310,0.060,-0.250,-0.140
4.770,0.320,0.070,-0.270,-0.160
4.772,0.330,0.100,-0.280,-0.160
4.774,0.330,0.120,-0.290,-0.160
4.776,0.330,0.120,-0.300,-0.150
4.778,0.330,0.110,-0.290,-0.140
4.780,0.350,0.100,-0.280,-0.130
4.782,0.350,0.090,-0.290,-0.110
4.784,0.340,0.100,-0.300,-0.100
4.786,0.340,0.090,-0.300,-0.100
4.788,0.330,0.080,-0.280,-0.100
4.790,0.310,0.070,-0.260,-0.080
4.792,0.300,0.060,-0.250,-0.060
4.794,0.300,0.050,-0.240,-0.040
4.796,0.300,0.020,-0.210,-0.010
4.798,0.290,0.010,-0.190,0.010
4.800,0.280,0.000,-0.180,0.030
4.802,0.270,-0.030,-0.160,0.040
4.804,0.260,-0.070,-0.150,0.060
4.806,0.250,-0.080,-0.130,0.080
4.808,0.220,-0.100,-0.120,0.080
4.810,0.200,-0.130,-0.090,0.060
4.812,0.180,-0.140,-0.080,0.050
4.814,0.160,-0.150,-0.070,0.060
4.816,0.140,-0.180,-0.020,0.100
4.818,0.130,-0.230,0.020,0.140
4.820,0.130,-0.270,0.030,0.180
4.822,0.140,-0.290,0.040,0.220
4.824,0.160,-0.260,0.040,0.240
4.826,0.170,-0.220,0.030,0.240
4.828,0.180,-0.200,0.010,0.240
4.830,0.200,-0.170,0.000,0.260
4.832,0.220,-0.130,-0.020,0.270
4.834,0.230,-0.100,-0.050,0.270
4.836,0.260,-0.050,-0.100,0.250
4.838,0.260,-0.030,-0.140,0.230
4.840,0.240,0.000,-0.180,0.190
4.842,0.200,0.020,-0.200,0.150
4.844,0.180,0.050,-0.210,0.130
4.846,0.170,0.040,-0.210,0.140
4.848,0.170,0.030,-0.200,0.160
4.850,0.160,0.030,-0.170,0.190
4.852,0.160,0.030,-0.160,0.220
4.854,0.160,0.050,-0.150,0.250
4.856,0.160,0.070,-0.140,0.270
4.858,0.150,0.050,-0.130,0.280
4.860,0.120,0.030,-0.120,0.290
4.862,0.080,0.000,-0.080,0.300
4.864,0.050,-0.030,-0.040,0.310
4.866,0.000,-0.080,0.000,0.310
4.868,-0.040,-0.100,0.010,0.270
4.870,-0.070,-0.080,0.000,0.230
4.872,-0.050,-0.020,-0.010,0.230
4.874,0.050,0.100,-0.040,0.280
4.876,0.240,0.290,-0.060,0.370
4.878,0.490,0.490,-0.090,0.510
4.880,0.800,0.710,-0.090,0.720
4.882,1.190,0.980,-0.060,1.000
4.884,1.650,1.260,0.000,1.330
4.886,2.150,1.560,0.050,1.690
4.888,2.670,1.870,0.110,2.070
4.890,3.200,2.180,0.170,2.490
4.892,3.720,2.480,0.260,2.920
4.894,4.160,2.700,0.340,3.300
4.896,4.470,2.830,0.430,3.580
4.898,4.630,2.870,0.500,3.760
4.900,4.660,2.810,0.550,3.830
4.902,4.510,2.630,0.560,3.720
4.904,4.140,2.400,0.460,3.380
4.906,3.610,2.160,0.250,2.870
4.908,3.030,1.910,0.050,2.330
4.910,2.470,1.680,-0.090,1.840
4.912,2.000,1.450,-0.180,1.460
4.914,1.600,1.230,-0.230,1.170
4.916,1.250,1.040,-0.250,0.940
4.918,0.950,0.850,-0.260,0.750
4.920,0.690,0.690,-0.260,0.600
4.922,0.470,0.560,-0.240,0.470
4.924,0.270,0.460,-0.230,0.370
4.926,0.110,0.360,-0.220,0.290
4.928,-0.020,0.260,-0.200,0.250
4.930,-0.130,0.180,-0.190,0.250
4.932,-0.210,0.100,-0.170,0.250
4.934,-0.280,0.030,-0.150,0.210
4.936,-0.340,-0.010,-0.140,0.150
4.938,-0.390,-0.030,-0.130,0.070
4.940,-0.430,-0.040,-0.130,-0.010
4.942,-0.450,-0.040,-0.130,-0.060
4.944,-0.450,-0.040,-0.110,-0.080
4.946,-0.440,-0.060,-0.090,-0.090
4.948,-0.440,-0.080,-0.060,-0.100
4.950,-0.440,-0.100,-0.040,-0.110
4.952,-0.440,-0.100,-0.040,-0.140
4.954,-0.450,-0.080,-0.070,-0.160
4.956,-0.450,-0.080,-0.070,-0.170
4.958,-0.450,-0.080,-0.070,-0.170
4.960,-0.440,-0.090,-0.070,-0.160
4.962,-0.420,-0.100,-0.060,-0.150
4.964,-0.410,-0.110,-0.040,-0.130
4.966,-0.400,-0.090,-0.040,-0.130
4.968,-0.400,-0.070,-0.050,-0.130
4.970,-0.380,-0.080,-0.050,-0.090
4.972,-0.370,-0.090,-0.030,-0.050
4.974,-0.370,-0.090,-0.020,-0.040
4.976,-0.370,-0.090,-0.020,-0.040
4.978,-0.370,-0.100,-0.020,-0.050
4.980,-0.360,-0.100,-0.020,-0.100
4.982,-0.370,-0.090,-0.030,-0.140
4.984,-0.370,-0.090,-0.040,-0.170
4.986,-0.370,-0.090,-0.030,-0.190
4.988,-0.370,-0.110,-0.030,-0.220
4.990,-0.390,-0.110,-0.030,-0.250
4.992,-0.400,-0.100,-0.040,-0.270
4.994,-0.410,-0.070,-0.050,-0.320
4.996,-0.420,-0.040,-0.070,-0.350
4.998,-0.430,-0.050,-0.060,-0.360
5.000,-0.430,-0.070,-0.050,-0.360
5.002,-0.420,-0.070,-0.030,-0.350
5.004,-0.430,-0.090,-0.030,-0.340
5.006,-0.440,-0.110,-0.040,-0.330
5.008,-0.460,-0.110,-0.050,-0.330
5.010,-0.480,-0.090,-0.070,-0.320
5.012,-0.490,-0.100,-0.060,-0.290
5.014,-0.490,-0.110,-0.050,-0.270
5.016,-0.490,-0.120,-0.040,-0.250
5.018,-0.490,-0.120,-0.030,-0.260
5.020,-0.490,-0.130,-0.020,-0.260
5.022,-0.500,-0.130,-0.020,-0.290
5.024,-0.520,-0.120,-0.030,-0.340
5.026,-0.520,-0.120,-0.030,-0.360
5.028,-0.520,-0.140,-0.020,-0.370
5.030,-0.510,-0.160,-0.010,-0.370
5.032,-0.520,-0.180,0.000,-0.370
5.034,-0.520,-0.180,0.010,-0.360
5.036,-0.550,-0.170,0.020,-0.370
5.038,-0.580,-0.160,0.020,-0.390
5.040,-0.590,-0.160,0.030,-0.390
5.042,-0.590,-0.180,0.030,-0.380
5.044,-0.590,-0.190,0.060,-0.370
5.046,-0.580,-0.210,0.090,-0.360
5.048,-0.570,-0.230,0.100,-0.350
5.050,-0.570,-0.250,0.110,-0.350
5.052,-0.590,-0.240,0.120,-0.360
5.054,-0.600,-0.260,0.130,-0.350
5.056,-0.600,-0.290,0.140,-0.340
5.058,-0.600,-0.320,0.140,-0.330
5.060,-0.610,-0.350,0.160,-0.320
5.062,-0.620,-0.380,0.180,-0.300
5.064,-0.630,-0.390,0.200,-0.290
5.066,-0.640,-0.390,0.200,-0.290
5.068,-0.640,-0.390,0.210,-0.280
5.070,-0.630,-0.410,0.220,-0.240
5.072,-0.630,-0.430,0.250,-0.210
5.074,-0.630,-0.440,0.280,-0.200
5.076,-0.630,-0.450,0.300,-0.190
5.078,-0.630,-0.460,0.310,-0.170
5.080,-0.630,-0.450,0.330,-0.160
5.082,-0.600,-0.460,0.340,-0.140
5.084,-0.580,-0.470,0.360,-0.120
5.086,-0.560,-0.480,0.390,-0.110
5.088,-0.540,-0.480,0.400,-0.100
5.090,-0.520,-0.490,0.400,-0.080
5.092,-0.500,-0.480,0.380,-0.080
5.094,-0.510,-0.450,0.370,-0.100
5.096,-0.490,-0.440,0.350,-0.100
5.098,-0.460,-0.440,0.350,-0.090
5.100,-0.440,-0.440,0.350,-0.070
5.102,-0.410,-0.430,0.350,-0.070
5.104,-0.380,-0.420,0.350,-0.060
5.106,-0.380,-0.400,0.340,-0.080
5.108,-0.390,-0.370,0.320,-0.120
5.110,-0.390,-0.350,0.300,-0.120
5.112,-0.360,-0.330,0.270,-0.110
5.114,-0.330,-0.310,0.240,-0.110
5.116,-0.310,-0.290,0.220,-0.110
5.118,-0.300,-0.290,0.210,-0.110
5.120,-0.290,-0.260,0.190,-0.130
5.122,-0.290,-0.220,0.140,-0.170
5.124,-0.270,-0.190,0.120,-0.180
5.126,-0.250,-0.160,0.090,-0.180
5.128,-0.210,-0.140,0.050,-0.200
5.130,-0.180,-0.120,0.010,-0.220
5.132,-0.140,-0.100,-0.020,-0.240
5.134,-0.120,-0.060,-0.070,-0.280
5.136,-0.120,0.000,-0.100,-0.310
5.138,-0.120,0.010,-0.130,-0.330
5.140,-0.100,0.030,-0.160,-0.350
5.142,-0.080,0.070,-0.200,-0.370
5.144,-0.060,0.100,-0.230,-0.410
5.146,-0.030,0.130,-0.250,-0.430
5.148,-0.010,0.160,-0.290,-0.460
5.150,-0.010,0.200,-0.330,-0.490
5.152,0.010,0.220,-0.360,-0.510
5.154,0.040,0.240,-0.380,-0.530
5.156,0.050,0.260,-0.420,-0.540
5.158,0.060,0.280,-0.440,-0.560
5.160,0.090,0.310,-0.440,-0.570
5.162,0.110,0.340,-0.460,-0.600
5.164,0.130,0.370,-0.480,-0.630
5.166,0.160,0.390,-0.490,-0.630
5.168,0.170,0.400,-0.510,-0.640
5.170,0.190,0.420,-0.520,-0.660
5.172,0.210,0.430,-0.540,-0.670
5.174,0.210,0.440,-0.550,-0.670
5.176,0.210,0.460,-0.550,-0.680
5.178,0.200,0.470,-0.560,-0.690
5.180,0.190,0.450,-0.560,-0.680
5.182,0.200,0.440,-0.560,-0.660
5.184,0.200,0.420,-0.550,-0.640
5.186,0.190,0.410,-0.530,-0.610
5.188,0.170,0.390,-0.520,-0.600
5.190,0.150,0.390,-0.520,-0.590
5.192,0.130,0.410,-0.520,-0.600
5.194,0.120,0.390,-0.500,-0.590
5.196,0.100,0.360,-0.480,-0.560
5.198,0.080,0.340,-0.470,-0.540
5.200,0.060,0.320,-0.470,-0.520
5.202,0.050,0.310,-0.470,-0.510
5.204,0.010,0.280,-0.460,-0.500
5.206,-0.020,0.270,-0.450,-0.500
5.208,-0.050,0.240,-0.440,-0.500
5.210,-0.080,0.200,-0.410,-0.490
5.212,-0.110,0.180,-0.370,-0.470
5.214,-0.120,0.150,-0.350,-0.440
5.216,-0.130,0.130,-0.330,-0.420
5.218,-0.160,0.120,-0.310,-0.420
5.220,-0.190,0.110,-0.300,-0.420
5.222,-0.210,0.090,-0.300,-0.410
5.224,-0.230,0.080,-0.280,-0.410
5.226,-0.250,0.060,-0.270,-0.400
5.228,-0.260,0.060,-0.260,-0.400
5.230,-0.270,0.060,-0.250,-0.390
5.232,-0.280,0.070,-0.230,-0.390
5.234,-0.290,0.090,-0.220,-0.390
5.236,-0.290,0.080,-0.200,-0.380
5.238,-0.300,0.060,-0.180,-0.370
5.240,-0.310,0.050,-0.170,-0.360
5.242,-0.320,0.060,-0.160,-0.360
5.244,-0.330,0.070,-0.160,-0.350
5.246,-0.320,0.080,-0.150,-0.340
5.248,-0.320,0.100,-0.150,-0.350
5.250,-0.320,0.090,-0.140,-0.340
5.252,-0.310,0.100,-0.130,-0.330
5.254,-0.280,0.110,-0.120,-0.310
5.256,-0.250,0.120,-0.110,-0.290
5.258,-0.230,0.140,-0.100,-0.270
5.260,-0.220,0.170,-0.100,-0.280
5.262,-0.200,0.200,-0.100,-0.290
5.264,-0.180,0.210,-0.090,-0.280
5.266,-0.160,0.220,-0.080,-0.260
5.268,-0.120,0.230,-0.070,-0.250
5.270,-0.080,0.240,-0.080,-0.250
5.272,-0.050,0.240,-0.100,-0.230
5.274,-0.020,0.270,-0.110,-0.230
5.276,0.000,0.310,-0.130,-0.240
5.278,0.040,0.310,-0.130,-0.240
5.280,0.080,0.310,-0.140,-0.230
5.282,0.120,0.310,-0.140,-0.210
5.284,0.150,0.320,-0.150,-0.210
5.286,0.180,0.320,-0.170,-0.230
5.288,0.210,0.310,-0.180,-0.250
5.290,0.220,0.320,-0.200,-0.240
5.292,0.230,0.330,-0.210,-0.230
5.294,0.250,0.350,-0.210,-0.210
5.296,0.290,0.350,-0.220,-0.160
5.298,0.320,0.350,-0.210,-0.120
5.300,0.350,0.350,-0.210,-0.100
5.302,0.370,0.360,-0.210,-0.100
5.304,0.390,0.360,-0.210,-0.100
5.306,0.400,0.370,-0.210,-0.080
5.308,0.400,0.380,-0.210,-0.070
5.310,0.380,0.370,-0.210,-0.060
5.312,0.380,0.360,-0.190,-0.040
5.314,0.370,0.350,-0.170,-0.020
5.316,0.350,0.360,-0.150,0.000
5.318,0.330,0.360,-0.140,0.000
5.320,0.300,0.340,-0.130,0.000
5.322,0.260,0.310,-0.130,0.000
5.324,0.230,0.300,-0.120,-0.020
5.326,0.190,0.280,-0.090,-0.020
5.328,0.150,0.260,-0.050,-0.020
5.330,0.120,0.220,-0.010,-0.010
5.332,0.080,0.190,0.010,-0.020
5.334,0.030,0.170,0.030,-0.030
5.336,0.000,0.140,0.050,-0.040
5.338,-0.030,0.090,0.080,-0.030
5.340,-0.060,0.060,0.120,-0.010
5.342,-0.090,0.040,0.150,0.000
5.344,-0.110,0.010,0.170,0.000
5.346,-0.130,-0.010,0.200,0.000
5.348,-0.130,-0.030,0.220,0.030
5.350,-0.140,-0.050,0.250,0.060
5.352,-0.140,-0.060,0.280,0.060
5.354,-0.160,-0.060,0.310,0.050
5.356,-0.150,-0.080,0.330,0.070
5.358,-0.160,-0.060,0.320,0.070
5.360,-0.160,-0.030,0.310,0.070
5.362,-0.140,-0.020,0.310,0.060
5.364,-0.100,-0.010,0.320,0.070
5.366,-0.070,0.000,0.310,0.080
5.368,-0.060,0.020,0.300,0.070
5.370,-0.040,0.040,0.280,0.040
5.372,-0.010,0.070,0.260,0.020
5.374,0.000,0.090,0.250,0.000
5.376,0.000,0.120,0.230,-0.020
5.378,0.020,0.160,0.200,-0.030
5.380,0.050,0.180,0.180,-0.040
5.382,0.070,0.200,0.150,-0.020
5.384,0.110,0.230,0.130,-0.020
5.386,0.140,0.250,0.090,-0.030
5.388,0.150,0.270,0.060,-0.050
5.390,0.160,0.290,0.040,-0.050
5.392,0.170,0.300,0.010,-0.060
5.394,0.190,0.320,0.000,-0.060
5.396,0.210,0.320,-0.010,-0.050
5.398,0.230,0.320,0.000,-0.020
5.400,0.250,0.320,-0.010,-0.010
5.402,0.260,0.340,-0.030,-0.030
5.404,0.280,0.340,-0.040,-0.040
5.406,0.290,0.340,-0.040,-0.060
5.408,0.290,0.340,-0.040,-0.070
5.410,0.300,0.350,-0.050,-0.070
5.412,0.320,0.340,-0.050,-0.070
5.414,0.320,0.340,-0.040,-0.060
5.416,0.310,0.340,-0.050,-0.060
5.418,0.310,0.340,-0.060,-0.060
5.420,0.300,0.320,-0.060,-0.040
5.422,0.280,0.300,-0.060,-0.040
5.424,0.240,0.290,-0.050,-0.040
5.426,0.220,0.280,-0.050,-0.030
5.428,0.210,0.270,-0.050,-0.020
5.430,0.180,0.270,-0.050,-0.020
5.432,0.140,0.260,-0.050,0.000
5.434,0.110,0.230,-0.050,0.000
5.436,0.100,0.200,-0.030,0.000
5.438,0.090,0.180,-0.010,0.010
5.440,0.070,0.180,0.000,0.020
5.442,0.040,0.170,0.000,0.020
5.444,0.020,0.170,0.010,0.000
5.446,0.010,0.170,0.020,0.000
5.448,0.000,0.170,0.030,0.010
5.450,0.000,0.160,0.050,0.040
5.452,0.000,0.150,0.050,0.050
5.454,-0.010,0.140,0.050,0.050
5.456,-0.040,0.150,0.060,0.050
5.458,-0.050,0.160,0.070,0.050
5.460,-0.060,0.150,0.100,0.050
5.462,-0.080,0.120,0.110,0.050
5.464,-0.090,0.110,0.120,0.060
5.466,-0.090,0.100,0.130,0.070
5.468,-0.080,0.080,0.140,0.070
5.470,-0.090,0.060,0.140,0.080
5.472,-0.120,0.060,0.140,0.070
5.474,-0.130,0.060,0.140,0.060
5.476,-0.130,0.070,0.140,0.060
5.478,-0.130,0.060,0.150,0.080
5.480,-0.130,0.040,0.160,0.090
5.482,-0.130,0.030,0.160,0.090
5.484,-0.130,0.030,0.160,0.080
5.486,-0.140,0.040,0.160,0.050
5.488,-0.150,0.050,0.160,0.050
5.490,-0.160,0.040,0.160,0.050
5.492,-0.160,0.030,0.150,0.050
5.494,-0.140,0.020,0.150,0.070
5.496,-0.120,0.010,0.150,0.090
5.498,-0.120,0.010,0.140,0.120
5.500,-0.130,0.020,0.130,0.140
5.502,-0.130,0.020,0.120,0.170
5.504,-0.130,0.030,0.110,0.220
5.506,-0.130,0.030,0.100,0.270
5.508,-0.140,0.040,0.100,0.300
5.510,-0.130,0.040,0.100,0.290
5.512,-0.120,0.050,0.090,0.240
5.514,-0.130,0.070,0.080,0.140
5.516,-0.130,0.090,0.070,0.050
5.518,-0.110,0.080,0.050,-0.030
5.520,-0.090,0.070,0.040,-0.120
5.522,-0.090,0.070,0.040,-0.190
5.524,-0.100,0.070,0.050,-0.240
5.526,-0.110,0.080,0.060,-0.270
5.528,-0.110,0.100,0.050,-0.290
5.530,-0.100,0.090,0.050,-0.290
5.532,-0.090,0.080,0.050,-0.260
5.534,-0.080,0.060,0.050,-0.230
5.536,-0.090,0.040,0.050,-0.220
5.538,-0.110,0.020,0.060,-0.200
5.540,-0.130,0.000,0.060,-0.190
5.542,-0.170,0.000,0.060,-0.190
5.544,-0.200,-0.050,0.080,-0.170
5.546,-0.260,-0.120,0.110,-0.140
5.548,-0.320,-0.170,0.130,-0.140
5.550,-0.350,-0.200,0.130,-0.140
5.552,-0.350,-0.170,0.120,-0.130
5.554,-0.260,-0.070,0.100,-0.090
5.556,-0.100,0.080,0.070,-0.010
5.558,0.120,0.270,0.030,0.130
5.560,0.430,0.480,0.030,0.340
5.562,0.820,0.730,0.070,0.610
5.564,1.270,1.020,0.120,0.950
5.566,1.780,1.330,0.180,1.310
5.568,2.320,1.670,0.240,1.690
5.570,2.870,2.030,0.300,2.080
5.572,3.420,2.380,0.350,2.500
5.574,3.880,2.630,0.410,2.870
5.576,4.200,2.790,0.460,3.150
5.578,4.370,2.860,0.510,3.300
5.580,4.400,2.860,0.540,3.350
5.582,4.250,2.770,0.510,3.250
5.584,3.890,2.610,0.360,2.920
5.586,3.350,2.440,0.110,2.390
5.588,2.750,2.250,-0.130,1.820
5.590,2.180,2.050,-0.330,1.310
5.592,1.690,1.860,-0.460,0.900
5.594,1.270,1.680,-0.560,0.550
5.596,0.910,1.510,-0.620,0.270
5.598,0.590,1.360,-0.660,0.040
5.600,0.320,1.210,-0.670,-0.140
5.602,0.080,1.070,-0.680,-0.290
5.604,-0.110,0.950,-0.690,-0.420
5.606,-0.300,0.830,-0.690,-0.510
5.608,-0.450,0.730,-0.680,-0.600
5.610,-0.590,0.640,-0.670,-0.690
5.612,-0.710,0.580,-0.680,-0.770
5.614,-0.790,0.520,-0.680,-0.820
5.616,-0.860,0.460,-0.680,-0.860
5.618,-0.910,0.400,-0.670,-0.880
5.620,-0.950,0.360,-0.660,-0.920
5.622,-0.980,0.320,-0.650,-0.940
5.624,-1.010,0.290,-0.640,-0.960
5.626,-1.030,0.280,-0.620,-0.970
5.628,-1.050,0.250,-0.620,-0.990
5.630,-1.050,0.230,-0.600,-0.970
5.632,-1.040,0.210,-0.580,-0.950
5.634,-1.040,0.190,-0.560,-0.940
5.636,-1.030,0.170,-0.550,-0.930
5.638,-1.020,0.160,-0.530,-0.920
5.640,-1.020,0.170,-0.530,-0.930
5.642,-1.020,0.170,-0.520,-0.930
5.644,-1.000,0.140,-0.490,-0.920
5.646,-0.970,0.110,-0.460,-0.890
5.648,-0.950,0.100,-0.440,-0.860
5.650,-0.930,0.090,-0.440,-0.830
5.652,-0.900,0.070,-0.430,-0.820
5.654,-0.870,0.070,-0.410,-0.810
5.656,-0.870,0.080,-0.400,-0.800
5.658,-0.850,0.080,-0.390,-0.790
5.660,-0.830,0.070,-0.370,-0.770
5.662,-0.810,0.050,-0.350,-0.740
5.664,-0.800,0.050,-0.340,-0.720
5.666,-0.780,0.050,-0.320,-0.700
5.668,-0.770,0.050,-0.310,-0.690
5.670,-0.750,0.050,-0.300,-0.700
5.672,-0.730,0.030,-0.290,-0.690
5.674,-0.710,0.030,-0.290,-0.680
5.676,-0.700,0.020,-0.280,-0.670
5.678,-0.680,0.010,-0.260,-0.650
5.680,-0.660,0.000,-0.240,-0.630
5.682,-0.650,0.020,-0.220,-0.610
5.684,-0.640,0.010,-0.210,-0.600
5.686,-0.610,0.000,-0.210,-0.600
5.688,-0.590,-0.010,-0.190,-0.590
5.690,-0.580,-0.010,-0.180,-0.570
5.692,-0.580,-0.030,-0.170,-0.570
5.694,-0.580,-0.080,-0.130,-0.550
5.696,-0.590,-0.150,-0.080,-0.530
5.698,-0.590,-0.210,-0.040,-0.500
5.700,-0.580,-0.290,0.000,-0.460
5.702,-0.570,-0.360,0.060,-0.430
5.704,-0.550,-0.440,0.110,-0.400
5.706,-0.540,-0.510,0.160,-0.370
5.708,-0.530,-0.560,0.200,-0.350
5.710,-0.530,-0.590,0.240,-0.340
5.712,-0.530,-0.630,0.270,-0.310
5.714,-0.510,-0.670,0.320,-0.260
5.716,-0.490,-0.710,0.360,-0.210
5.718,-0.490,-0.750,0.390,-0.180
5.720,-0.470,-0.780,0.430,-0.150
5.722,-0.450,-0.810,0.450,-0.130
5.724,-0.460,-0.810,0.470,-0.120
5.726,-0.470,-0.810,0.470,-0.110
5.728,-0.460,-0.830,0.490,-0.090
5.730,-0.450,-0.850,0.530,-0.060
5.732,-0.440,-0.870,0.550,-0.030
5.734,-0.430,-0.890,0.570,-0.010
5.736,-0.430,-0.900,0.590,0.000
5.738,-0.430,-0.910,0.620,0.010
5.740,-0.440,-0.920,0.620,0.020
5.742,-0.430,-0.940,0.630,0.040
5.744,-0.420,-0.950,0.650,0.050
5.746,-0.400,-0.970,0.690,0.070
5.748,-0.380,-0.980,0.710,0.100
5.750,-0.370,-0.980,0.730,0.130
5.752,-0.370,-0.960,0.750,0.130
5.754,-0.360,-0.950,0.760,0.150
5.756,-0.350,-0.960,0.770,0.160
5.758,-0.350,-0.970,0.790,0.180
5.760,-0.340,-0.970,0.790,0.180
5.762,-0.330,-0.970,0.790,0.190
5.764,-0.320,-0.960,0.800,0.210
5.766,-0.310,-0.930,0.800,0.220
5.768,-0.310,-0.910,0.800,0.240
5.770,-0.290,-0.910,0.790,0.250
5.772,-0.270,-0.920,0.790,0.250
5.774,-0.270,-0.930,0.790,0.250
5.776,-0.280,-0.920,0.790,0.250
5.778,-0.270,-0.910,0.780,0.230
5.780,-0.270,-0.870,0.760,0.220
5.782,-0.280,-0.840,0.750,0.220
5.784,-0.260,-0.830,0.740,0.230
5.786,-0.240,-0.810,0.740,0.240
5.788,-0.230,-0.800,0.730,0.240
5.790,-0.230,-0.790,0.700,0.240
5.792,-0.220,-0.770,0.680,0.230
5.794,-0.230,-0.750,0.650,0.200
5.796,-0.230,-0.720,0.630,0.180
5.798,-0.210,-0.680,0.610,0.180
5.800,-0.200,-0.670,0.590,0.180
5.802,-0.200,-0.660,0.580,0.160
5.804,-0.200,-0.630,0.550,0.140
5.806,-0.190,-0.610,0.520,0.120
5.808,-0.200,-0.580,0.490,0.090
5.810,-0.200,-0.550,0.460,0.060
5.812,-0.180,-0.510,0.420,0.020
5.814,-0.160,-0.480,0.380,0.000
5.816,-0.150,-0.460,0.360,0.000
5.818,-0.140,-0.450,0.340,-0.020
5.820,-0.140,-0.430,0.310,-0.050
5.822,-0.140,-0.400,0.270,-0.090
5.824,-0.140,-0.390,0.240,-0.120
5.826,-0.130,-0.380,0.220,-0.130
5.828,-0.110,-0.360,0.190,-0.130
5.830,-0.090,-0.340,0.180,-0.130
5.832,-0.070,-0.320,0.160,-0.130
5.834,-0.050,-0.320,0.150,-0.140
5.836,-0.050,-0.300,0.140,-0.170
5.838,-0.040,-0.280,0.130,-0.200
5.840,-0.030,-0.270,0.120,-0.200
5.842,-0.030,-0.260,0.090,-0.190
5.844,-0.030,-0.230,0.080,-0.190
5.846,-0.010,-0.220,0.050,-0.200
5.848,-0.010,-0.210,0.040,-0.190
5.850,0.000,-0.180,0.030,-0.190
5.852,0.000,-0.150,0.020,-0.190
5.854,0.000,-0.150,0.020,-0.200
5.856,0.000,-0.150,0.020,-0.200
5.858,0.000,-0.150,0.020,-0.210
5.860,0.000,-0.150,0.010,-0.210
5.862,0.020,-0.160,0.010,-0.200
5.864,0.030,-0.150,0.010,-0.210
5.866,0.020,-0.130,0.000,-0.210
5.868,0.030,-0.140,-0.010,-0.210
5.870,0.050,-0.150,-0.020,-0.220
5.872,0.060,-0.140,-0.020,-0.220
5.874,0.060,-0.130,-0.020,-0.220
5.876,0.060,-0.110,-0.020,-0.220
5.878,0.060,-0.100,-0.020,-0.220
5.880,0.070,-0.080,-0.020,-0.210
5.882,0.070,-0.080,-0.030,-0.200
5.884,0.080,-0.080,-0.030,-0.190
5.886,0.090,-0.080,-0.030,-0.200
5.888,0.090,-0.070,-0.040,-0.220
5.890,0.090,-0.070,-0.050,-0.230
5.892,0.080,-0.070,-0.060,-0.240
5.894,0.080,-0.050,-0.080,-0.240
5.896,0.090,-0.040,-0.080,-0.240
5.898,0.090,-0.030,-0.070,-0.230
5.900,0.090,-0.030,-0.070,-0.210
5.902,0.090,-0.040,-0.060,-0.210
5.904,0.090,-0.040,-0.060,-0.210
5.906,0.080,-0.030,-0.070,-0.220
5.908,0.080,-0.020,-0.070,-0.230
5.910,0.070,-0.020,-0.080,-0.230
5.912,0.080,-0.030,-0.060,-0.210
5.914,0.090,-0.040,-0.050,-0.190
5.916,0.090,-0.050,-0.040,-0.180
5.918,0.100,-0.060,-0.050,-0.190
5.920,0.100,-0.060,-0.060,-0.210
5.922,0.090,-0.040,-0.080,-0.220
5.924,0.080,-0.040,-0.080,-0.220
5.926,0.080,-0.040,-0.090,-0.230
5.928,0.090,-0.050,-0.090,-0.220
5.930,0.100,-0.060,-0.070,-0.190
5.932,0.100,-0.070,-0.060,-0.160
5.934,0.090,-0.060,-0.060,-0.160
5.936,0.080,-0.060,-0.060,-0.180
5.938,0.080,-0.050,-0.060,-0.180
5.940,0.070,-0.040,-0.060,-0.180
5.942,0.070,-0.040,-0.050,-0.180
5.944,0.070,-0.030,-0.050,-0.180
5.946,0.080,-0.020,-0.040,-0.170
5.948,0.060,-0.010,-0.030,-0.170
5.950,0.060,0.000,-0.040,-0.160
5.952,0.060,0.000,-0.030,-0.150
5.954,0.070,-0.010,-0.020,-0.150
5.956,0.070,0.000,-0.020,-0.140
5.958,0.070,-0.010,-0.020,-0.120
5.960,0.060,-0.020,-0.020,-0.120
5.962,0.050,0.000,-0.030,-0.140
5.964,0.040,0.000,-0.050,-0.170
5.966,0.060,0.000,-0.050,-0.160
5.968,0.080,-0.020,-0.060,-0.160
5.970,0.090,-0.050,-0.070,-0.160
5.972,0.090,-0.060,-0.050,-0.160
5.974,0.080,-0.050,-0.040,-0.160
5.976,0.070,-0.030,-0.020,-0.160
5.978,0.060,-0.030,-0.010,-0.160
5.980,0.080,-0.030,0.000,-0.150
5.982,0.100,-0.040,0.000,-0.140
5.984,0.110,-0.040,-0.010,-0.140
5.986,0.100,-0.050,-0.010,-0.140
5.988,0.090,-0.050,-0.010,-0.140
5.990,0.080,-0.010,-0.020,-0.160
5.992,0.070,0.000,-0.020,-0.170
5.994,0.080,0.000,-0.010,-0.170
5.996,0.100,0.000,-0.010,-0.160
5.998,0.110,0.000,-0.020,-0.150
6.000,0.120,-0.010,-0.030,-0.140
6.002,0.120,-0.010,-0.040,-0.130
6.004,0.100,0.000,-0.060,-0.160
6.006,0.070,0.020,-0.070,-0.190
6.008,0.070,0.020,-0.070,-0.210
6.010,0.060,0.020,-0.080,-0.200
6.012,0.070,0.010,-0.070,-0.190
6.014,0.070,0.000,-0.060,-0.180
6.016,0.070,-0.010,-0.050,-0.160
6.018,0.080,-0.010,-0.040,-0.170
6.020,0.080,0.000,-0.060,-0.180
6.022,0.080,0.010,-0.070,-0.190
6.024,0.070,0.000,-0.070,-0.180
6.026,0.070,0.000,-0.080,-0.180
6.028,0.090,0.000,-0.080,-0.180
6.030,0.120,-0.010,-0.070,-0.170
6.032,0.120,0.000,-0.070,-0.170
6.034,0.120,0.010,-0.070,-0.180
6.036,0.130,0.000,-0.060,-0.190
6.038,0.140,0.000,-0.050,-0.180
6.040,0.140,-0.010,-0.050,-0.180
6.042,0.130,-0.010,-0.050,-0.180
6.044,0.130,-0.010,-0.050,-0.190
6.046,0.130,0.000,-0.050,-0.200
6.048,0.130,0.010,-0.070,-0.210
6.050,0.140,0.000,-0.060,-0.200
6.052,0.140,-0.010,-0.050,-0.200
6.054,0.140,-0.020,-0.040,-0.200
6.056,0.120,-0.020,-0.040,-0.210
6.058,0.100,-0.030,-0.030,-0.210
6.060,0.090,-0.030,-0.040,-0.220
6.062,0.090,-0.030,-0.050,-0.230
6.064,0.100,-0.040,-0.060,-0.230
6.066,0.110,-0.040,-0.060,-0.200
6.068,0.130,-0.040,-0.050,-0.190
6.070,0.130,-0.050,-0.050,-0.200
6.072,0.130,-0.050,-0.060,-0.200
6.074,0.130,-0.030,-0.070,-0.210
6.076,0.110,-0.010,-0.060,-0.220
6.078,0.110,-0.010,-0.060,-0.220
6.080,0.120,-0.010,-0.050,-0.200
6.082,0.120,-0.020,-0.060,-0.190
6.084,0.120,-0.010,-0.070,-0.180
6.086,0.130,-0.020,-0.070,-0.190
6.088,0.130,-0.020,-0.060,-0.210
6.090,0.100,0.000,-0.070,-0.240
6.092,0.080,0.000,-0.070,-0.250
6.094,0.100,-0.010,-0.060,-0.250
6.096,0.110,-0.020,-0.050,-0.240
6.098,0.120,-0.020,-0.050,-0.230
6.100,0.130,-0.020,-0.060,-0.210
6.102,0.130,-0.010,-0.080,-0.210
6.104,0.120,0.000,-0.090,-0.230
6.106,0.110,0.010,-0.100,-0.240
6.108,0.100,0.020,-0.100,-0.240
6.110,0.090,0.010,-0.100,-0.240
6.112,0.100,0.010,-0.100,-0.240
6.114,0.110,0.010,-0.100,-0.230
6.116,0.110,0.010,-0.100,-0.220
6.118,0.090,0.020,-0.110,-0.230
6.120,0.090,0.020,-0.120,-0.230
6.122,0.100,0.020,-0.140,-0.230
6.124,0.110,0.000,-0.150,-0.240
6.126,0.100,0.000,-0.160,-0.260
6.128,0.100,0.010,-0.170,-0.270
6.130,0.100,0.020,-0.170,-0.280
6.132,0.100,0.030,-0.180,-0.290
6.134,0.110,0.040,-0.200,-0.290
6.136,0.120,0.040,-0.210,-0.300
6.138,0.110,0.040,-0.220,-0.320
6.140,0.100,0.050,-0.240,-0.320
6.142,0.090,0.060,-0.250,-0.320
6.144,0.080,0.070,-0.240,-0.340
6.146,0.080,0.080,-0.250,-0.360
6.148,0.080,0.090,-0.270,-0.360
6.150,0.080,0.110,-0.280,-0.360
6.152,0.080,0.120,-0.280,-0.370
6.154,0.080,0.140,-0.290,-0.370
6.156,0.080,0.160,-0.300,-0.360
6.158,0.070,0.190,-0.310,-0.370
6.160,0.060,0.220,-0.340,-0.390
6.162,0.060,0.230,-0.340,-0.380
6.164,0.060,0.250,-0.350,-0.370
6.166,0.070,0.280,-0.380,-0.350
6.168,0.070,0.310,-0.400,-0.350
6.170,0.080,0.350,-0.420,-0.350
6.172,0.080,0.390,-0.450,-0.370
6.174,0.070,0.450,-0.470,-0.390
6.176,0.060,0.500,-0.490,-0.400
6.178,0.060,0.540,-0.510,-0.390
6.180,0.070,0.560,-0.520,-0.390
6.182,0.070,0.570,-0.530,-0.380
6.184,0.080,0.580,-0.540,-0.380
6.186,0.070,0.600,-0.560,-0.390
6.188,0.060,0.630,-0.580,-0.430
6.190,0.050,0.640,-0.590,-0.450
6.192,0.040,0.640,-0.580,-0.470
6.194,0.030,0.620,-0.580,-0.470
6.196,0.030,0.600,-0.570,-0.460
6.198,0.020,0.590,-0.560,-0.460
6.200,0.000,0.580,-0.550,-0.460
6.202,0.000,0.580,-0.550,-0.460
6.204,0.000,0.570,-0.550,-0.460
6.206,0.000,0.560,-0.540,-0.460
6.208,-0.010,0.550,-0.530,-0.460
6.210,-0.020,0.520,-0.520,-0.450
6.212,0.000,0.500,-0.500,-0.440
6.214,0.000,0.480,-0.480,-0.430
6.216,0.000,0.490,-0.470,-0.430
6.218,0.000,0.470,-0.460,-0.430
6.220,0.000,0.430,-0.440,-0.430
6.222,0.000,0.410,-0.430,-0.420
6.224,0.000,0.400,-0.440,-0.420
6.226,0.000,0.380,-0.430,-0.410
6.228,0.000,0.350,-0.430,-0.400
6.230,0.000,0.350,-0.430,-0.400
6.232,0.000,0.340,-0.420,-0.380
6.234,0.000,0.320,-0.390,-0.360
6.236,0.000,0.290,-0.360,-0.350
6.238,0.000,0.250,-0.350,-0.350
6.240,0.000,0.220,-0.340,-0.350
6.242,-0.010,0.220,-0.340,-0.350
6.244,-0.020,0.210,-0.320,-0.370
6.246,-0.040,0.170,-0.300,-0.370
6.248,-0.060,0.130,-0.280,-0.360
6.250,-0.090,0.080,-0.260,-0.350
6.252,-0.140,0.020,-0.230,-0.350
6.254,-0.200,-0.040,-0.210,-0.370
6.256,-0.270,-0.100,-0.190,-0.410
6.258,-0.320,-0.090,-0.180,-0.440
6.260,-0.280,-0.060,-0.190,-0.420
6.262,-0.140,0.020,-0.190,-0.330
6.264,0.080,0.170,-0.190,-0.190
6.266,0.380,0.390,-0.190,0.000
6.268,0.730,0.610,-0.170,0.230
6.270,1.170,0.860,-0.080,0.540
6.272,1.650,1.140,0.010,0.910
6.274,2.170,1.430,0.110,1.330
6.276,2.740,1.750,0.210,1.780
6.278,3.300,2.080,0.290,2.220
6.280,3.870,2.400,0.370,2.670
6.282,4.390,2.680,0.450,3.110
6.284,4.810,2.870,0.540,3.480
6.286,5.080,2.980,0.600,3.720
6.288,5.200,2.990,0.630,3.830
6.290,5.150,2.920,0.640,3.820
6.292,4.900,2.730,0.590,3.630
6.294,4.440,2.450,0.450,3.210
6.296,3.810,2.130,0.240,2.630
6.298,3.120,1.800,0.040,2.010
6.300,2.470,1.490,-0.090,1.460
6.302,1.910,1.190,-0.190,1.000
6.304,1.420,0.900,-0.260,0.620
6.306,0.990,0.640,-0.290,0.310
6.308,0.620,0.420,-0.320,0.050
6.310,0.320,0.220,-0.340,-0.160
6.312,0.060,0.050,-0.350,-0.350
6.314,-0.160,-0.070,-0.360,-0.500
6.316,-0.360,-0.190,-0.350,-0.620
6.318,-0.520,-0.310,-0.350,-0.710
6.320,-0.660,-0.410,-0.350,-0.800
6.322,-0.770,-0.490,-0.350,-0.870
6.324,-0.870,-0.550,-0.350,-0.940
6.326,-0.940,-0.600,-0.350,-0.980
6.328,-1.000,-0.630,-0.350,-1.040
6.330,-1.050,-0.660,-0.350,-1.070
6.332,-1.090,-0.690,-0.330,-1.070
6.334,-1.110,-0.720,-0.310,-1.080
6.336,-1.130,-0.740,-0.290,-1.080
6.338,-1.150,-0.750,-0.280,-1.080
6.340,-1.170,-0.780,-0.250,-1.090
6.342,-1.180,-0.780,-0.250,-1.120
6.344,-1.180,-0.800,-0.250,-1.140
6.346,-1.160,-0.840,-0.220,-1.140
6.348,-1.130,-0.860,-0.180,-1.110
6.350,-1.110,-0.890,-0.160,-1.080
6.352,-1.090,-0.910,-0.140,-1.060
6.354,-1.070,-0.920,-0.110,-1.040
6.356,-1.060,-0.910,-0.090,-1.020
6.358,-1.060,-0.920,-0.080,-1.000
6.360,-1.050,-0.920,-0.070,-0.990
6.362,-1.030,-0.930,-0.050,-0.960
6.364,-1.010,-0.940,-0.030,-0.920
6.366,-1.000,-0.940,-0.030,-0.880
6.368,-0.970,-0.940,-0.030,-0.860
6.370,-0.960,-0.920,-0.020,-0.850
6.372,-0.950,-0.910,-0.020,-0.850
6.374,-0.930,-0.910,-0.020,-0.840
6.376,-0.910,-0.910,-0.020,-0.830
6.378,-0.900,-0.920,-0.030,-0.810
6.380,-0.880,-0.910,-0.010,-0.790
6.382,-0.870,-0.900,0.000,-0.760
6.384,-0.850,-0.870,0.000,-0.750
6.386,-0.830,-0.860,0.000,-0.750
6.388,-0.800,-0.860,0.000,-0.740
6.390,-0.780,-0.850,-0.010,-0.730
6.392,-0.780,-0.840,0.000,-0.720
6.394,-0.780,-0.820,0.000,-0.720
6.396,-0.770,-0.800,0.000,-0.720
6.398,-0.760,-0.780,-0.010,-0.700
6.400,-0.750,-0.780,-0.010,-0.680
6.402,-0.740,-0.770,-0.020,-0.670
6.404,-0.730,-0.770,-0.010,-0.650
6.406,-0.710,-0.750,0.000,-0.640
6.408,-0.700,-0.740,0.000,-0.640
6.410,-0.690,-0.720,0.000,-0.630
6.412,-0.680,-0.700,0.000,-0.620
6.414,-0.670,-0.690,-0.010,-0.600
6.416,-0.650,-0.690,-0.010,-0.570
6.418,-0.650,-0.700,-0.020,-0.550
6.420,-0.650,-0.700,-0.020,-0.550
6.422,-0.640,-0.700,-0.030,-0.560
6.424,-0.650,-0.700,-0.030,-0.560
6.426,-0.640,-0.680,-0.040,-0.560
6.428,-0.630,-0.660,-0.050,-0.560
6.430,-0.620,-0.630,-0.030,-0.540
6.432,-0.620,-0.620,-0.020,-0.530
6.434,-0.610,-0.620,-0.010,-0.520
6.436,-0.590,-0.620,0.000,-0.540
6.438,-0.590,-0.630,-0.010,-0.540
6.440,-0.610,-0.620,-0.020,-0.550
6.442,-0.620,-0.600,-0.020,-0.540
6.444,-0.610,-0.610,-0.020,-0.520
6.446,-0.600,-0.630,0.000,-0.480
6.448,-0.600,-0.650,0.010,-0.460
6.450,-0.610,-0.660,0.030,-0.440
6.452,-0.600,-0.670,0.050,-0.430
6.454,-0.600,-0.670,0.070,-0.430
6.456,-0.610,-0.650,0.070,-0.440
6.458,-0.610,-0.650,0.070,-0.430
6.460,-0.600,-0.660,0.090,-0.420
6.462,-0.590,-0.670,0.120,-0.400
6.464,-0.590,-0.680,0.130,-0.380
6.466,-0.570,-0.680,0.130,-0.350
6.468,-0.560,-0.670,0.150,-0.340
6.470,-0.560,-0.660,0.150,-0.350
6.472,-0.560,-0.670,0.150,-0.330
6.474,-0.540,-0.680,0.150,-0.320
6.476,-0.530,-0.680,0.160,-0.310
6.478,-0.530,-0.680,0.170,-0.300
6.480,-0.520,-0.670,0.180,-0.280
6.482,-0.510,-0.650,0.180,-0.280
6.484,-0.500,-0.630,0.170,-0.280
6.486,-0.480,-0.610,0.170,-0.280
6.488,-0.470,-0.590,0.160,-0.270
6.490,-0.470,-0.580,0.140,-0.260
6.492,-0.480,-0.560,0.120,-0.260
6.494,-0.460,-0.540,0.100,-0.260
6.496,-0.430,-0.510,0.090,-0.250
6.498,-0.430,-0.470,0.070,-0.270
6.500,-0.410,-0.450,0.060,-0.270
6.502,-0.400,-0.450,0.060,-0.280
6.504,-0.380,-0.430,0.040,-0.290
6.506,-0.370,-0.400,0.010,-0.300
6.508,-0.370,-0.380,0.000,-0.320
6.510,-0.370,-0.350,-0.020,-0.340
6.512,-0.380,-0.320,-0.070,-0.380
6.514,-0.370,-0.290,-0.100,-0.380
6.516,-0.350,-0.270,-0.120,-0.370
6.518,-0.320,-0.240,-0.150,-0.380
6.520,-0.310,-0.210,-0.190,-0.410
6.522,-0.310,-0.180,-0.230,-0.440
6.524,-0.300,-0.140,-0.270,-0.460
6.526,-0.290,-0.100,-0.310,-0.490
6.528,-0.260,-0.060,-0.340,-0.510
6.530,-0.230,-0.030,-0.370,-0.520
6.532,-0.210,-0.010,-0.410,-0.530
6.534,-0.200,0.010,-0.440,-0.540
6.536,-0.190,0.050,-0.460,-0.550
6.538,-0.170,0.080,-0.490,-0.590
6.540,-0.180,0.130,-0.540,-0.630
6.542,-0.190,0.170,-0.570,-0.640
6.544,-0.170,0.200,-0.600,-0.640
6.546,-0.160,0.230,-0.620,-0.630
6.548,-0.150,0.240,-0.630,-0.620
6.550,-0.130,0.240,-0.650,-0.620
6.552,-0.120,0.260,-0.670,-0.640
6.554,-0.110,0.280,-0.680,-0.680
6.556,-0.100,0.290,-0.690,-0.700
6.558,-0.110,0.300,-0.690,-0.710
6.560,-0.120,0.310,-0.690,-0.720
6.562,-0.120,0.300,-0.700,-0.720
6.564,-0.110,0.310,-0.710,-0.720
6.566,-0.100,0.320,-0.720,-0.710
6.568,-0.100,0.330,-0.730,-0.730
6.570,-0.100,0.340,-0.720,-0.740
6.572,-0.110,0.340,-0.710,-0.750
6.574,-0.110,0.350,-0.720,-0.750
6.576,-0.120,0.350,-0.720,-0.740
6.578,-0.120,0.340,-0.710,-0.730
6.580,-0.130,0.330,-0.710,-0.720
6.582,-0.150,0.320,-0.720,-0.730
6.584,-0.150,0.310,-0.720,-0.710
6.586,-0.150,0.300,-0.730,-0.700
6.588,-0.140,0.280,-0.740,-0.690
6.590,-0.140,0.280,-0.740,-0.680
6.592,-0.150,0.280,-0.750,-0.690
6.594,-0.160,0.290,-0.740,-0.690
6.596,-0.150,0.290,-0.740,-0.690
6.598,-0.140,0.280,-0.740,-0.670
6.600,-0.140,0.280,-0.740,-0.650
6.602,-0.130,0.260,-0.750,-0.640
6.604,-0.130,0.230,-0.750,-0.630
6.606,-0.140,0.240,-0.750,-0.620
6.608,-0.150,0.250,-0.760,-0.620
6.610,-0.160,0.270,-0.760,-0.640
6.612,-0.170,0.270,-0.740,-0.630
6.614,-0.170,0.260,-0.730,-0.620
6.616,-0.180,0.260,-0.720,-0.600
6.618,-0.180,0.250,-0.720,-0.600
6.620,-0.160,0.250,-0.720,-0.600
6.622,-0.160,0.250,-0.720,-0.590
6.624,-0.190,0.260,-0.730,-0.600
6.626,-0.200,0.240,-0.730,-0.600
6.628,-0.200,0.230,-0.710,-0.590
6.630,-0.200,0.220,-0.700,-0.570
6.632,-0.200,0.210,-0.680,-0.540
6.634,-0.200,0.200,-0.670,-0.520
6.636,-0.220,0.200,-0.670,-0.500
6.638,-0.230,0.220,-0.660,-0.500
6.640,-0.240,0.220,-0.660,-0.490
6.642,-0.240,0.220,-0.660,-0.480
6.644,-0.230,0.210,-0.650,-0.470
6.646,-0.220,0.200,-0.640,-0.450
6.648,-0.210,0.190,-0.630,-0.430
6.650,-0.200,0.180,-0.620,-0.420
6.652,-0.200,0.200,-0.620,-0.430
6.654,-0.200,0.200,-0.620,-0.440
6.656,-0.200,0.200,-0.610,-0.430
6.658,-0.210,0.190,-0.600,-0.430
6.660,-0.220,0.180,-0.590,-0.430
6.662,-0.230,0.170,-0.580,-0.410
6.664,-0.210,0.160,-0.570,-0.390
6.666,-0.200,0.160,-0.560,-0.390
6.668,-0.190,0.160,-0.560,-0.400
6.670,-0.180,0.150,-0.560,-0.400
6.672,-0.180,0.140,-0.560,-0.390
6.674,-0.190,0.150,-0.560,-0.380
6.676,-0.200,0.150,-0.560,-0.360
6.678,-0.210,0.140,-0.550,-0.340
6.680,-0.220,0.160,-0.550,-0.330
6.682,-0.210,0.150,-0.550,-0.310
6.684,-0.210,0.140,-0.530,-0.300
6.686,-0.200,0.130,-0.510,-0.290
6.688,-0.200,0.110,-0.490,-0.280
6.690,-0.210,0.090,-0.480,-0.270
6.692,-0.200,0.080,-0.480,-0.270
6.694,-0.210,0.080,-0.480,-0.300
6.696,-0.220,0.090,-0.480,-0.300
6.698,-0.210,0.080,-0.460,-0.270
6.700,-0.180,0.080,-0.440,-0.250
6.702,-0.170,0.080,-0.420,-0.240
6.704,-0.150,0.070,-0.410,-0.240
6.706,-0.140,0.060,-0.420,-0.240
6.708,-0.160,0.080,-0.440,-0.270
6.710,-0.170,0.090,-0.440,-0.280
6.712,-0.170,0.080,-0.440,-0.270
6.714,-0.160,0.080,-0.430,-0.240
6.716,-0.150,0.090,-0.420,-0.220
6.718,-0.140,0.080,-0.410,-0.210
6.720,-0.140,0.070,-0.410,-0.220
6.722,-0.150,0.080,-0.400,-0.230
6.724,-0.170,0.100,-0.390,-0.230
6.726,-0.170,0.110,-0.380,-0.220
6.728,-0.170,0.110,-0.380,-0.210
6.730,-0.170,0.100,-0.370,-0.190
6.732,-0.170,0.100,-0.360,-0.190
6.734,-0.170,0.080,-0.350,-0.190
6.736,-0.160,0.080,-0.350,-0.210
6.738,-0.160,0.090,-0.360,-0.230
6.740,-0.160,0.090,-0.370,-0.240
6.742,-0.160,0.090,-0.360,-0.230
6.744,-0.160,0.080,-0.360,-0.220
6.746,-0.160,0.070,-0.370,-0.210
6.748,-0.160,0.070,-0.370,-0.190
6.750,-0.160,0.080,-0.360,-0.180
6.752,-0.150,0.070,-0.370,-0.180
6.754,-0.140,0.060,-0.390,-0.190
6.756,-0.150,0.060,-0.390,-0.190
6.758,-0.160,0.060,-0.380,-0.190
6.760,-0.170,0.050,-0.390,-0.190
6.762,-0.180,0.040,-0.400,-0.180
6.764,-0.190,0.040,-0.390,-0.190
6.766,-0.190,0.050,-0.390,-0.190
6.768,-0.200,0.040,-0.390,-0.190
6.770,-0.190,0.040,-0.390,-0.200
6.772,-0.190,0.040,-0.390,-0.210
6.774,-0.200,0.030,-0.390,-0.210
6.776,-0.210,0.030,-0.390,-0.190
6.778,-0.220,0.040,-0.380,-0.190
6.780,-0.220,0.050,-0.380,-0.180
6.782,-0.210,0.040,-0.370,-0.170
6.784,-0.210,0.020,-0.370,-0.170
6.786,-0.200,0.030,-0.380,-0.170
6.788,-0.200,0.040,-0.380,-0.170
6.790,-0.210,0.040,-0.380,-0.170
6.792,-0.230,0.060,-0.380,-0.170
6.794,-0.240,0.060,-0.390,-0.190
6.796,-0.230,0.060,-0.380,-0.200
6.798,-0.230,0.060,-0.370,-0.190
6.800,-0.230,0.060,-0.370,-0.170
6.802,-0.230,0.060,-0.380,-0.160
6.804,-0.220,0.050,-0.390,-0.170
6.806,-0.220,0.040,-0.400,-0.180
6.808,-0.230,0.060,-0.410,-0.190
6.810,-0.230,0.060,-0.420,-0.180
6.812,-0.230,0.050,-0.420,-0.160
6.814,-0.230,0.040,-0.410,-0.150
6.816,-0.220,0.030,-0.410,-0.140
6.818,-0.220,0.020,-0.420,-0.140
6.820,-0.220,0.020,-0.440,-0.150
6.822,-0.230,0.030,-0.440,-0.160
6.824,-0.240,0.030,-0.440,-0.160
6.826,-0.240,0.030,-0.420,-0.160
6.828,-0.230,0.020,-0.400,-0.160
6.830,-0.220,0.020,-0.390,-0.150
6.832,-0.230,0.020,-0.390,-0.140
6.834,-0.240,0.030,-0.380,-0.140
6.836,-0.240,0.030,-0.370,-0.160
6.838,-0.250,0.030,-0.370,-0.150
6.840,-0.250,0.040,-0.370,-0.160
6.842,-0.260,0.050,-0.370,-0.170
6.844,-0.250,0.040,-0.370,-0.180
6.846,-0.240,0.040,-0.370,-0.180
6.848,-0.240,0.040,-0.370,-0.190
6.850,-0.250,0.050,-0.380,-0.190
6.852,-0.260,0.040,-0.380,-0.190
6.854,-0.260,0.020,-0.390,-0.200
6.856,-0.260,0.030,-0.390,-0.200
6.858,-0.250,0.050,-0.400,-0.210
6.860,-0.250,0.070,-0.400,-0.210
6.862,-0.240,0.090,-0.400,-0.210
6.864,-0.230,0.080,-0.390,-0.200
6.866,-0.220,0.060,-0.390,-0.180
6.868,-0.210,0.050,-0.390,-0.160
6.870,-0.200,0.030,-0.380,-0.140
6.872,-0.190,0.030,-0.370,-0.130
6.874,-0.190,0.040,-0.370,-0.130
6.876,-0.180,0.060,-0.370,-0.140
6.878,-0.180,0.070,-0.360,-0.150
6.880,-0.180,0.070,-0.350,-0.140
6.882,-0.190,0.060,-0.340,-0.120
6.884,-0.190,0.040,-0.330,-0.110
6.886,-0.190,0.030,-0.320,-0.120
6.888,-0.190,0.020,-0.310,-0.120
6.890,-0.210,0.030,-0.290,-0.130
6.892,-0.220,0.050,-0.300,-0.150
6.894,-0.220,0.060,-0.300,-0.140
6.896,-0.220,0.040,-0.280,-0.110
6.898,-0.230,0.030,-0.280,-0.100
6.900,-0.240,0.010,-0.280,-0.080
6.902,-0.250,0.010,-0.280,-0.080
6.904,-0.260,0.020,-0.270,-0.100
6.906,-0.270,0.040,-0.260,-0.110
6.908,-0.270,0.040,-0.250,-0.100
6.910,-0.260,0.030,-0.250,-0.110
6.912,-0.250,0.020,-0.230,-0.110
6.914,-0.260,0.020,-0.220,-0.100
6.916,-0.260,0.020,-0.220,-0.080
6.918,-0.250,0.020,-0.220,-0.080
6.920,-0.240,0.030,-0.220,-0.090
6.922,-0.240,0.020,-0.220,-0.080
6.924,-0.260,0.010,-0.220,-0.070
6.926,-0.270,0.000,-0.220,-0.060
6.928,-0.270,-0.010,-0.200,-0.050
6.930,-0.250,-0.040,-0.190,-0.040
6.932,-0.250,-0.030,-0.200,-0.040
6.934,-0.270,0.000,-0.220,-0.070
6.936,-0.260,0.000,-0.220,-0.080
6.938,-0.250,-0.010,-0.210,-0.060
6.940,-0.250,-0.010,-0.190,-0.050
6.942,-0.240,-0.010,-0.170,-0.050
6.944,-0.240,-0.010,-0.160,-0.070
6.946,-0.240,0.000,-0.140,-0.070
6.948,-0.250,0.000,-0.140,-0.060
6.950,-0.250,-0.020,-0.130,-0.050
6.952,-0.280,-0.060,-0.110,-0.050
6.954,-0.320,-0.110,-0.070,-0.050
6.956,-0.380,-0.160,-0.040,-0.070
6.958,-0.450,-0.230,-0.010,-0.090
6.960,-0.500,-0.280,0.000,-0.130
6.962,-0.510,-0.270,0.000,-0.150
6.964,-0.460,-0.220,0.010,-0.130
6.966,-0.310,-0.110,0.010,-0.040
6.968,-0.070,0.050,0.000,0.070
6.970,0.220,0.280,-0.020,0.230
6.972,0.570,0.540,0.000,0.470
6.974,0.990,0.810,0.060,0.790
6.976,1.480,1.090,0.160,1.160
6.978,2.010,1.390,0.270,1.590
6.980,2.590,1.710,0.360,2.060
6.982,3.180,2.050,0.450,2.530
6.984,3.780,2.390,0.540,2.990
6.986,4.340,2.690,0.620,3.430
6.988,4.790,2.890,0.720,3.820
6.990,5.070,3.010,0.800,4.080
6.992,5.210,3.040,0.850,4.230
6.994,5.210,2.980,0.860,4.250
6.996,5.000,2.800,0.820,4.100
6.998,4.560,2.520,0.690,3.690
7.000,3.910,2.180,0.480,3.080
7.002,3.180,1.820,0.270,2.410
7.004,2.470,1.490,0.090,1.790
7.006,1.850,1.170,-0.020,1.290
7.008,1.300,0.880,-0.080,0.890
7.010,0.850,0.610,-0.120,0.560
7.012,0.470,0.370,-0.130,0.290
7.014,0.140,0.160,-0.140,0.090
7.016,-0.140,-0.010,-0.140,-0.060
7.018,-0.380,-0.150,-0.130,-0.220
7.020,-0.580,-0.280,-0.140,-0.350
7.022,-0.760,-0.400,-0.140,-0.450
7.024,-0.900,-0.490,-0.140,-0.550
7.026,-1.020,-0.560,-0.130,-0.630
7.028,-1.110,-0.630,-0.120,-0.680
7.030,-1.180,-0.690,-0.110,-0.720
7.032,-1.240,-0.720,-0.110,-0.760
7.034,-1.280,-0.740,-0.110,-0.780
7.036,-1.310,-0.770,-0.100,-0.800
7.038,-1.330,-0.790,-0.080,-0.800
7.040,-1.350,-0.790,-0.070,-0.800
7.042,-1.360,-0.810,-0.060,-0.790
7.044,-1.360,-0.820,-0.050,-0.790
7.046,-1.370,-0.820,-0.040,-0.790
7.048,-1.360,-0.810,-0.030,-0.780
7.050,-1.340,-0.810,-0.020,-0.760
7.052,-1.320,-0.820,-0.010,-0.760
7.054,-1.290,-0.820,0.000,-0.750
7.056,-1.290,-0.810,0.000,-0.740
7.058,-1.280,-0.800,-0.010,-0.730
7.060,-1.270,-0.790,-0.010,-0.730
7.062,-1.250,-0.780,-0.010,-0.730
7.064,-1.230,-0.780,0.000,-0.720
7.066,-1.200,-0.780,0.000,-0.700
7.068,-1.170,-0.780,0.010,-0.680
7.070,-1.160,-0.770,0.010,-0.680
7.072,-1.150,-0.750,0.020,-0.670
7.074,-1.160,-0.720,0.010,-0.670
7.076,-1.150,-0.700,0.010,-0.660
7.078,-1.130,-0.690,0.020,-0.640
7.080,-1.100,-0.700,0.030,-0.630
7.082,-1.070,-0.690,0.030,-0.610
7.084,-1.050,-0.680,0.050,-0.600
7.086,-1.030,-0.670,0.060,-0.590
7.088,-1.010,-0.660,0.070,-0.580
7.090,-1.000,-0.640,0.070,-0.580
7.092,-0.990,-0.620,0.070,-0.570
7.094,-0.990,-0.610,0.080,-0.560
7.096,-0.970,-0.620,0.100,-0.540
7.098,-0.950,-0.610,0.100,-0.520
7.100,-0.940,-0.610,0.090,-0.490
7.102,-0.930,-0.590,0.080,-0.500
7.104,-0.910,-0.580,0.090,-0.510
7.106,-0.890,-0.570,0.100,-0.500
7.108,-0.880,-0.560,0.110,-0.490
7.110,-0.870,-0.560,0.110,-0.490
7.112,-0.850,-0.550,0.120,-0.460
7.114,-0.830,-0.550,0.130,-0.430
7.116,-0.810,-0.540,0.120,-0.420
7.118,-0.800,-0.520,0.130,-0.410
7.120,-0.770,-0.530,0.140,-0.410
7.122,-0.760,-0.540,0.150,-0.400
7.124,-0.770,-0.540,0.150,-0.400
7.126,-0.770,-0.540,0.150,-0.380
7.128,-0.760,-0.530,0.160,-0.360
7.130,-0.740,-0.520,0.170,-0.350
7.132,-0.750,-0.520,0.170,-0.340
7.134,-0.750,-0.520,0.180,-0.330
7.136,-0.740,-0.530,0.190,-0.310
7.138,-0.730,-0.540,0.190,-0.300
7.140,-0.720,-0.540,0.190,-0.290
7.142,-0.720,-0.550,0.190,-0.280
7.144,-0.730,-0.540,0.210,-0.280
7.146,-0.740,-0.520,0.230,-0.270
7.148,-0.740,-0.530,0.240,-0.240
7.150,-0.730,-0.550,0.250,-0.230
7.152,-0.730,-0.570,0.270,-0.220
7.154,-0.710,-0.580,0.280,-0.220
7.156,-0.700,-0.580,0.300,-0.210
7.158,-0.710,-0.560,0.310,-0.210
7.160,-0.720,-0.540,0.310,-0.220
7.162,-0.700,-0.550,0.330,-0.190
7.164,-0.670,-0.570,0.350,-0.150
7.166,-0.650,-0.580,0.380,-0.110
7.168,-0.650,-0.590,0.400,-0.080
7.170,-0.650,-0.590,0.420,-0.060
7.172,-0.630,-0.580,0.430,-0.050
7.174,-0.620,-0.560,0.450,-0.050
7.176,-0.620,-0.560,0.450,-0.040
7.178,-0.600,-0.560,0.470,-0.020
7.180,-0.570,-0.580,0.480,0.000
7.182,-0.550,-0.580,0.480,0.020
7.184,-0.530,-0.590,0.480,0.050
7.186,-0.510,-0.570,0.480,0.070
7.188,-0.510,-0.540,0.490,0.070
7.190,-0.500,-0.530,0.490,0.090
7.192,-0.490,-0.530,0.490,0.100
7.194,-0.480,-0.530,0.480,0.120
7.196,-0.460,-0.520,0.470,0.130
7.198,-0.430,-0.510,0.460,0.140
7.200,-0.410,-0.490,0.450,0.140
7.202,-0.420,-0.460,0.440,0.130
7.204,-0.410,-0.430,0.440,0.130
7.206,-0.400,-0.420,0.440,0.120
7.208,-0.390,-0.400,0.420,0.110
7.210,-0.380,-0.370,0.390,0.110
7.212,-0.360,-0.360,0.370,0.100
7.214,-0.350,-0.330,0.350,0.080
7.216,-0.330,-0.280,0.320,0.060
7.218,-0.300,-0.260,0.290,0.060
7.220,-0.280,-0.240,0.270,0.040
7.222,-0.270,-0.210,0.240,0.020
7.224,-0.270,-0.170,0.200,0.000
7.226,-0.260,-0.150,0.150,-0.010
7.228,-0.240,-0.110,0.100,-0.040
7.230,-0.230,-0.070,0.060,-0.070
7.232,-0.220,-0.040,0.030,-0.070
7.234,-0.200,0.000,0.000,-0.080
7.236,-0.180,0.020,-0.030,-0.090
7.238,-0.160,0.050,-0.060,-0.110
7.240,-0.140,0.090,-0.090,-0.130
7.242,-0.130,0.130,-0.110,-0.150
7.244,-0.120,0.170,-0.130,-0.160
7.246,-0.090,0.190,-0.150,-0.160
7.248,-0.070,0.200,-0.180,-0.160
7.250,-0.060,0.220,-0.190,-0.160
7.252,-0.050,0.230,-0.210,-0.160
7.254,-0.020,0.240,-0.230,-0.170
7.256,-0.010,0.260,-0.240,-0.180
7.258,-0.020,0.290,-0.250,-0.200
7.260,-0.020,0.300,-0.250,-0.200
7.262,-0.010,0.290,-0.240,-0.200
7.264,0.000,0.290,-0.240,-0.190
7.266,0.020,0.290,-0.240,-0.170
7.268,0.020,0.290,-0.240,-0.160
7.270,0.010,0.290,-0.240,-0.180
7.272,0.000,0.310,-0.250,-0.210
7.274,-0.010,0.310,-0.260,-0.220
7.276,-0.010,0.310,-0.270,-0.210
7.278,-0.010,0.310,-0.280,-0.200
7.280,-0.010,0.300,-0.260,-0.180
7.282,0.000,0.290,-0.250,-0.170
7.284,0.000,0.280,-0.250,-0.160
7.286,0.000,0.290,-0.260,-0.170
7.288,-0.010,0.290,-0.250,-0.180
7.290,-0.010,0.300,-0.240,-0.180
7.292,0.000,0.290,-0.230,-0.170
7.294,0.000,0.280,-0.230,-0.170
7.296,0.010,0.260,-0.210,-0.160
7.298,0.020,0.260,-0.200,-0.160
7.300,0.010,0.270,-0.190,-0.160
7.302,0.020,0.270,-0.200,-0.170
7.304,0.030,0.260,-0.200,-0.170
7.306,0.020,0.250,-0.200,-0.160
7.308,0.000,0.250,-0.200,-0.140
7.310,-0.010,0.240,-0.200,-0.140
7.312,-0.030,0.230,-0.180,-0.130
7.314,-0.040,0.240,-0.170,-0.140
7.316,-0.040,0.250,-0.170,-0.130
7.318,-0.040,0.240,-0.160,-0.130
7.320,-0.030,0.230,-0.160,-0.120
7.322,-0.030,0.210,-0.160,-0.110
7.324,-0.040,0.200,-0.160,-0.100
7.326,-0.040,0.200,-0.150,-0.100
7.328,-0.050,0.220,-0.150,-0.110
7.330,-0.050,0.220,-0.150,-0.110
7.332,-0.050,0.210,-0.150,-0.090
7.334,-0.050,0.200,-0.140,-0.080
7.336,-0.050,0.180,-0.140,-0.080
7.338,-0.050,0.180,-0.130,-0.070
7.340,-0.050,0.180,-0.130,-0.060
7.342,-0.060,0.200,-0.130,-0.090
7.344,-0.070,0.200,-0.140,-0.100
7.346,-0.060,0.180,-0.130,-0.090
7.348,-0.050,0.180,-0.120,-0.070
7.350,-0.040,0.170,-0.120,-0.050
7.352,-0.030,0.160,-0.110,-0.050
7.354,-0.030,0.140,-0.100,-0.050
7.356,-0.040,0.160,-0.100,-0.060
7.358,-0.060,0.160,-0.090,-0.050
7.360,-0.050,0.160,-0.090,-0.040
7.362,-0.040,0.150,-0.070,-0.020
7.364,-0.030,0.140,-0.050,0.000
7.366,-0.020,0.140,-0.040,0.010
7.368,-0.010,0.130,-0.040,0.010
7.370,-0.010,0.140,-0.040,0.010
7.372,-0.020,0.140,-0.050,0.010
7.374,-0.020,0.150,-0.050,0.010
7.376,-0.020,0.150,-0.040,0.020
7.378,-0.010,0.150,-0.030,0.020
7.380,0.000,0.140,-0.030,0.040
7.382,-0.010,0.130,-0.020,0.050
7.384,-0.010,0.130,-0.020,0.040
7.386,-0.020,0.140,-0.030,0.030
7.388,-0.020,0.130,-0.030,0.040
7.390,-0.020,0.120,-0.020,0.050
7.392,-0.020,0.120,-0.010,0.050
7.394,-0.010,0.110,-0.010,0.050
7.396,0.000,0.100,-0.010,0.050
7.398,-0.010,0.110,-0.010,0.050
7.400,-0.010,0.110,-0.010,0.060
7.402,0.000,0.110,-0.010,0.060
7.404,0.000,0.100,0.000,0.060
7.406,0.000,0.090,0.000,0.060
7.408,-0.010,0.100,0.000,0.060
7.410,-0.010,0.110,-0.010,0.060
7.412,0.000,0.110,-0.010,0.060
7.414,0.000,0.120,0.000,0.070
7.416,0.000,0.110,0.010,0.090
7.418,0.020,0.100,0.020,0.090
7.420,0.020,0.090,0.020,0.080
7.422,0.020,0.090,0.030,0.080
7.424,0.010,0.080,0.040,0.070
7.426,0.020,0.080,0.040,0.060
7.428,0.010,0.080,0.040,0.050
7.430,0.000,0.070,0.040,0.050
7.432,0.000,0.070,0.040,0.070
7.434,0.010,0.060,0.040,0.080
7.436,0.010,0.040,0.030,0.080
7.438,0.010,0.050,0.020,0.080
7.440,0.000,0.070,0.010,0.070
7.442,0.000,0.080,0.010,0.060
7.444,0.000,0.060,0.030,0.070
7.446,0.020,0.050,0.050,0.100
7.448,0.030,0.040,0.060,0.120
7.450,0.030,0.020,0.070,0.130
7.452,0.030,0.010,0.080,0.130
7.454,0.010,0.020,0.070,0.120
7.456,-0.010,0.040,0.070,0.100
7.458,-0.020,0.030,0.080,0.110
7.460,-0.020,0.020,0.080,0.110
7.462,-0.010,0.020,0.070,0.110
7.464,0.000,0.020,0.080,0.110
7.466,0.010,0.020,0.090,0.120
7.468,0.010,0.040,0.090,0.110
7.470,0.000,0.050,0.090,0.090
7.472,0.000,0.050,0.090,0.090
7.474,-0.010,0.050,0.090,0.100
7.476,-0.010,0.040,0.090,0.100
7.478,-0.010,0.040,0.100,0.100
7.480,-0.010,0.040,0.110,0.100
7.482,-0.010,0.050,0.110,0.120
7.484,-0.010,0.050,0.100,0.120
7.486,0.000,0.040,0.080,0.120
7.488,0.000,0.030,0.070,0.130
7.490,-0.010,0.020,0.070,0.120
7.492,-0.020,0.010,0.080,0.120
7.494,-0.010,0.010,0.070,0.110
7.496,-0.010,0.010,0.070,0.100
7.498,-0.020,0.020,0.070,0.110
7.500,-0.020,0.020,0.080,0.140
7.502,-0.010,0.020,0.090,0.140
7.504,-0.010,0.000,0.110,0.140
7.506,-0.020,0.000,0.110,0.140
7.508,-0.030,0.000,0.110,0.140
7.510,-0.030,0.020,0.100,0.120
7.512,-0.030,0.030,0.100,0.110
