0.000,0.100,-0.080,-0.570,-0.660
0.002,0.110,-0.060,-0.560,-0.660
0.004,0.130,-0.060,-0.550,-0.670
0.006,0.140,-0.070,-0.550,-0.680
0.008,0.150,-0.070,-0.550,-0.680
0.010,0.150,-0.050,-0.540,-0.670
0.012,0.180,-0.040,-0.540,-0.690
0.014,0.210,-0.030,-0.550,-0.730
0.016,0.230,-0.020,-0.560,-0.750
0.018,0.250,-0.010,-0.560,-0.750
0.020,0.250,0.000,-0.560,-0.760
0.022,0.250,0.000,-0.560,-0.750
0.024,0.250,-0.010,-0.560,-0.740
0.026,0.260,-0.020,-0.570,-0.760
0.028,0.270,-0.040,-0.580,-0.780
0.030,0.280,-0.060,-0.570,-0.790
0.032,0.290,-0.060,-0.560,-0.790
0.034,0.290,-0.060,-0.540,-0.780
0.036,0.280,-0.040,-0.540,-0.750
0.038,0.260,-0.010,-0.520,-0.690
0.040,0.250,-0.010,-0.510,-0.670
0.042,0.240,-0.030,-0.520,-0.690
0.044,0.250,-0.040,-0.520,-0.700
0.046,0.250,-0.060,-0.510,-0.700
0.048,0.250,-0.060,-0.500,-0.690
0.050,0.230,-0.040,-0.480,-0.660
0.052,0.190,0.000,-0.450,-0.620
0.054,0.180,0.000,-0.450,-0.600
0.056,0.170,-0.020,-0.470,-0.590
0.058,0.170,-0.040,-0.500,-0.610
0.060,0.170,-0.070,-0.510,-0.610
0.062,0.160,-0.090,-0.510,-0.600
0.064,0.150,-0.100,-0.500,-0.560
0.066,0.130,-0.090,-0.480,-0.510
0.068,0.120,-0.090,-0.470,-0.480
0.070,0.110,-0.080,-0.440,-0.440
0.072,0.090,-0.100,-0.430,-0.400
0.074,0.060,-0.130,-0.420,-0.370
0.076,0.030,-0.150,-0.400,-0.350
0.078,0.000,-0.170,-0.370,-0.320
0.080,-0.010,-0.150,-0.330,-0.280
0.082,-0.020,-0.130,-0.300,-0.250
0.084,-0.030,-0.130,-0.260,-0.220
0.086,-0.040,-0.130,-0.240,-0.190
0.088,-0.060,-0.140,-0.210,-0.160
0.090,-0.070,-0.160,-0.180,-0.130
0.092,-0.100,-0.170,-0.150,-0.110
0.094,-0.140,-0.160,-0.100,-0.060
0.096,-0.160,-0.140,-0.070,-0.020
0.098,-0.170,-0.120,-0.050,0.000
0.100,-0.190,-0.110,-0.040,0.010
0.102,-0.200,-0.110,-0.020,0.020
0.104,-0.210,-0.120,-0.020,0.040
0.106,-0.210,-0.140,-0.020,0.060
0.108,-0.220,-0.130,-0.010,0.070
0.110,-0.220,-0.130,-0.010,0.060
0.112,-0.210,-0.140,-0.010,0.070
0.114,-0.200,-0.140,-0.010,0.090
0.116,-0.200,-0.130,0.000,0.100
0.118,-0.220,-0.130,0.010,0.110
0.120,-0.230,-0.110,0.020,0.130
0.122,-0.240,-0.080,0.030,0.170
0.124,-0.230,-0.080,0.020,0.180
0.126,-0.220,-0.100,0.010,0.160
0.128,-0.210,-0.110,0.000,0.150
0.130,-0.210,-0.120,0.000,0.150
0.132,-0.220,-0.110,0.010,0.150
0.134,-0.230,-0.090,0.020,0.160
0.136,-0.250,-0.070,0.030,0.200
0.138,-0.260,-0.050,0.030,0.220
0.140,-0.260,-0.050,0.030,0.220
0.142,-0.250,-0.060,0.020,0.190
0.144,-0.240,-0.060,0.020,0.170
0.146,-0.230,-0.050,0.020,0.170
0.148,-0.210,-0.040,0.020,0.160
0.150,-0.210,-0.010,0.020,0.170
0.152,-0.220,0.010,0.030,0.180
0.154,-0.220,0.010,0.050,0.170
0.156,-0.210,0.010,0.060,0.160
0.158,-0.190,0.000,0.060,0.150
0.160,-0.180,0.000,0.050,0.140
0.162,-0.180,0.000,0.040,0.140
0.164,-0.190,0.030,0.060,0.190
0.166,-0.190,0.060,0.080,0.210
0.168,-0.170,0.060,0.070,0.200
0.170,-0.170,0.060,0.060,0.180
0.172,-0.170,0.040,0.040,0.160
0.174,-0.160,0.010,0.030,0.150
0.176,-0.160,0.000,0.040,0.130
0.178,-0.170,0.000,0.050,0.150
0.180,-0.180,0.030,0.050,0.160
0.182,-0.180,0.040,0.060,0.150
0.184,-0.170,0.030,0.060,0.150
0.186,-0.160,0.030,0.050,0.150
0.188,-0.150,0.030,0.040,0.160
0.190,-0.140,0.010,0.020,0.150
0.192,-0.150,0.020,0.020,0.160
0.194,-0.140,0.030,0.020,0.170
0.196,-0.120,0.020,0.020,0.170
0.198,-0.100,0.030,0.020,0.170
0.200,-0.080,0.050,0.020,0.170
0.202,-0.070,0.060,0.020,0.170
0.204,-0.060,0.070,0.030,0.180
0.206,-0.080,0.100,0.050,0.210
0.208,-0.090,0.110,0.060,0.200
0.210,-0.080,0.090,0.050,0.180
0.212,-0.070,0.080,0.030,0.160
0.214,-0.060,0.070,0.020,0.150
0.216,-0.050,0.080,0.020,0.140
0.218,-0.040,0.090,0.030,0.150
0.220,-0.030,0.100,0.050,0.170
0.222,-0.030,0.110,0.040,0.170
0.224,-0.010,0.090,0.030,0.160
0.226,-0.010,0.060,0.020,0.150
0.228,0.000,0.050,0.000,0.150
0.230,0.000,0.050,0.010,0.150
0.232,0.000,0.060,0.030,0.150
0.234,-0.010,0.100,0.040,0.150
0.236,-0.010,0.110,0.040,0.170
0.238,0.000,0.100,0.030,0.170
0.240,0.010,0.080,0.010,0.170
0.242,0.000,0.050,0.010,0.160
0.244,0.010,0.040,0.000,0.150
0.246,0.020,0.040,0.010,0.170
0.248,0.010,0.070,0.050,0.200
0.250,0.000,0.100,0.070,0.220
0.252,-0.010,0.110,0.060,0.210
0.254,0.000,0.110,0.050,0.210
0.256,0.000,0.090,0.030,0.200
0.258,0.010,0.060,0.030,0.190
0.260,0.010,0.040,0.040,0.170
0.262,0.000,0.050,0.040,0.180
0.264,-0.010,0.080,0.050,0.200
0.266,0.000,0.090,0.060,0.190
0.268,0.000,0.090,0.060,0.190
0.270,0.000,0.080,0.070,0.200
0.272,0.010,0.060,0.050,0.210
0.274,0.010,0.040,0.020,0.200
0.276,0.010,0.060,0.020,0.200
0.278,0.010,0.080,0.020,0.210
0.280,0.030,0.090,0.020,0.230
0.282,0.050,0.090,0.010,0.230
0.284,0.050,0.100,0.010,0.220
0.286,0.060,0.090,0.000,0.210
0.288,0.060,0.060,0.010,0.210
0.290,0.050,0.040,0.020,0.230
0.292,0.030,0.040,0.040,0.230
0.294,0.040,0.040,0.020,0.220
0.296,0.040,0.030,-0.020,0.210
0.298,0.050,0.030,-0.080,0.210
0.300,0.040,0.030,-0.120,0.220
0.302,0.030,0.040,-0.180,0.240
0.304,0.010,0.060,-0.210,0.280
0.306,-0.010,0.070,-0.230,0.300
0.308,-0.010,0.050,-0.250,0.280
0.310,0.000,0.030,-0.280,0.260
0.312,0.010,0.010,-0.310,0.260
0.314,0.030,0.000,-0.330,0.260
0.316,0.030,0.000,-0.340,0.260
0.318,0.020,0.020,-0.330,0.260
0.320,0.010,0.040,-0.330,0.260
0.322,0.020,0.040,-0.340,0.250
0.324,0.030,0.020,-0.360,0.240
0.326,0.030,0.000,-0.370,0.230
0.328,0.030,-0.010,-0.360,0.220
0.330,0.040,-0.010,-0.340,0.220
0.332,0.040,0.030,-0.300,0.240
0.334,0.010,0.080,-0.250,0.270
0.336,0.000,0.080,-0.240,0.280
0.338,0.000,0.070,-0.230,0.290
0.340,0.000,0.050,-0.220,0.280
0.342,0.000,0.030,-0.230,0.270
0.344,0.000,0.020,-0.240,0.250
0.346,0.010,0.040,-0.210,0.270
0.348,0.000,0.090,-0.180,0.300
0.350,0.000,0.110,-0.170,0.290
0.352,0.020,0.110,-0.170,0.280
0.354,0.030,0.100,-0.180,0.270
0.356,0.040,0.070,-0.170,0.250
0.358,0.050,0.060,-0.170,0.220
0.360,0.040,0.070,-0.190,0.220
0.362,0.050,0.080,-0.170,0.230
0.364,0.070,0.090,-0.150,0.230
0.366,0.090,0.090,-0.150,0.220
0.368,0.100,0.090,-0.150,0.210
0.370,0.100,0.090,-0.160,0.210
0.372,0.100,0.080,-0.160,0.200
0.374,0.080,0.100,-0.150,0.210
0.376,0.050,0.120,-0.130,0.230
0.378,0.050,0.120,-0.150,0.220
0.380,0.080,0.110,-0.170,0.200
0.382,0.090,0.110,-0.180,0.180
0.384,0.090,0.110,-0.180,0.160
0.386,0.100,0.110,-0.180,0.160
0.388,0.090,0.120,-0.180,0.180
0.390,0.060,0.130,-0.170,0.200
0.392,0.060,0.100,-0.160,0.190
0.394,0.070,0.080,-0.160,0.160
0.396,0.100,0.080,-0.170,0.150
0.398,0.110,0.080,-0.180,0.140
0.400,0.130,0.090,-0.180,0.120
0.402,0.130,0.100,-0.170,0.120
0.404,0.130,0.130,-0.150,0.130
0.406,0.140,0.130,-0.150,0.130
0.408,0.130,0.120,-0.150,0.110
0.410,0.120,0.100,-0.150,0.090
0.412,0.120,0.080,-0.150,0.090
0.414,0.140,0.070,-0.150,0.090
0.416,0.140,0.080,-0.150,0.090
0.418,0.120,0.110,-0.140,0.110
0.420,0.120,0.110,-0.170,0.090
0.422,0.120,0.080,-0.210,0.030
0.424,0.120,0.050,-0.270,-0.020
0.426,0.130,0.030,-0.330,-0.090
0.428,0.160,0.000,-0.390,-0.160
0.430,0.170,-0.010,-0.440,-0.200
0.432,0.170,0.010,-0.420,-0.190
0.434,0.180,0.060,-0.330,-0.140
0.436,0.180,0.140,-0.140,-0.030
0.438,0.170,0.270,0.130,0.130
0.440,0.190,0.460,0.480,0.340
0.442,0.280,0.740,0.920,0.550
0.444,0.400,1.100,1.420,0.790
0.446,0.520,1.510,1.960,1.060
0.448,0.660,1.940,2.530,1.350
0.450,0.790,2.370,3.100,1.660
0.452,0.900,2.820,3.680,1.970
0.454,0.990,3.240,4.210,2.250
0.456,1.060,3.590,4.630,2.470
0.458,1.100,3.830,4.880,2.610
0.460,1.100,3.950,4.970,2.690
0.462,1.040,3.910,4.900,2.690
0.464,0.910,3.660,4.610,2.600
0.466,0.670,3.180,4.090,2.430
0.468,0.370,2.560,3.420,2.190
0.470,0.110,1.940,2.730,1.920
0.472,-0.040,1.440,2.120,1.640
0.474,-0.140,1.040,1.600,1.360
0.476,-0.190,0.700,1.150,1.090
0.478,-0.220,0.430,0.750,0.840
0.480,-0.230,0.200,0.420,0.630
0.482,-0.230,0.030,0.130,0.430
0.484,-0.220,-0.090,-0.090,0.260
0.486,-0.220,-0.200,-0.290,0.130
0.488,-0.210,-0.300,-0.450,0.040
0.490,-0.190,-0.390,-0.580,-0.050
0.492,-0.170,-0.470,-0.690,-0.150
0.494,-0.140,-0.530,-0.800,-0.220
0.496,-0.110,-0.570,-0.870,-0.280
0.498,-0.070,-0.610,-0.920,-0.330
0.500,-0.050,-0.600,-0.950,-0.370
0.502,-0.070,-0.570,-0.960,-0.370
0.504,-0.060,-0.570,-0.990,-0.390
0.506,-0.030,-0.600,-1.010,-0.440
0.508,-0.020,-0.640,-1.020,-0.480
0.510,0.000,-0.670,-1.040,-0.500
0.512,0.000,-0.690,-1.040,-0.510
0.514,0.020,-0.680,-1.020,-0.510
0.516,0.020,-0.630,-1.010,-0.500
0.518,0.020,-0.610,-1.000,-0.500
0.520,0.020,-0.600,-0.990,-0.510
0.522,0.020,-0.600,-0.980,-0.520
0.524,0.010,-0.610,-0.970,-0.530
0.526,0.010,-0.620,-0.970,-0.540
0.528,0.010,-0.610,-0.950,-0.530
0.530,0.000,-0.560,-0.920,-0.500
0.532,0.000,-0.530,-0.910,-0.490
0.534,0.000,-0.530,-0.880,-0.490
0.536,0.000,-0.530,-0.860,-0.500
0.538,0.000,-0.520,-0.850,-0.510
0.540,0.000,-0.540,-0.840,-0.510
0.542,0.000,-0.540,-0.830,-0.510
0.544,0.000,-0.510,-0.810,-0.500
0.546,0.010,-0.490,-0.810,-0.510
0.548,0.020,-0.470,-0.810,-0.520
0.550,0.010,-0.450,-0.790,-0.520
0.552,0.000,-0.430,-0.780,-0.510
0.554,0.000,-0.420,-0.770,-0.510
0.556,0.000,-0.410,-0.770,-0.500
0.558,0.000,-0.400,-0.750,-0.490
0.560,0.000,-0.400,-0.750,-0.500
0.562,0.010,-0.400,-0.740,-0.510
0.564,0.010,-0.400,-0.730,-0.510
0.566,0.010,-0.380,-0.710,-0.490
0.568,0.000,-0.360,-0.690,-0.490
0.570,0.010,-0.340,-0.670,-0.470
0.572,0.010,-0.310,-0.650,-0.430
0.574,0.010,-0.310,-0.640,-0.420
0.576,0.020,-0.320,-0.630,-0.440
0.578,0.030,-0.320,-0.650,-0.450
0.580,0.040,-0.320,-0.650,-0.450
0.582,0.060,-0.300,-0.650,-0.450
0.584,0.060,-0.290,-0.640,-0.440
0.586,0.040,-0.260,-0.620,-0.390
0.588,0.040,-0.250,-0.600,-0.380
0.590,0.050,-0.250,-0.600,-0.390
0.592,0.050,-0.260,-0.600,-0.420
0.594,0.060,-0.270,-0.580,-0.440
0.596,0.080,-0.280,-0.590,-0.450
0.598,0.100,-0.260,-0.590,-0.440
0.600,0.100,-0.210,-0.580,-0.440
0.602,0.100,-0.190,-0.570,-0.450
0.604,0.110,-0.210,-0.570,-0.460
0.606,0.130,-0.240,-0.570,-0.490
0.608,0.130,-0.250,-0.560,-0.530
0.610,0.150,-0.260,-0.570,-0.560
0.612,0.170,-0.250,-0.570,-0.570
0.614,0.180,-0.220,-0.540,-0.550
0.616,0.200,-0.190,-0.520,-0.540
0.618,0.220,-0.170,-0.510,-0.550
0.620,0.240,-0.170,-0.510,-0.560
0.622,0.260,-0.160,-0.510,-0.570
0.624,0.270,-0.160,-0.520,-0.600
0.626,0.280,-0.170,-0.530,-0.620
0.628,0.280,-0.150,-0.530,-0.610
0.630,0.280,-0.120,-0.520,-0.600
0.632,0.300,-0.100,-0.520,-0.620
0.634,0.310,-0.090,-0.530,-0.630
0.636,0.320,-0.090,-0.530,-0.640
0.638,0.330,-0.090,-0.540,-0.640
0.640,0.310,-0.090,-0.530,-0.620
0.642,0.280,-0.060,-0.510,-0.590
0.644,0.280,-0.060,-0.500,-0.580
0.646,0.310,-0.070,-0.500,-0.580
0.648,0.330,-0.080,-0.490,-0.590
0.650,0.340,-0.070,-0.490,-0.590
0.652,0.340,-0.070,-0.480,-0.580
0.654,0.340,-0.060,-0.470,-0.550
0.656,0.320,-0.060,-0.460,-0.530
0.658,0.300,-0.080,-0.470,-0.530
0.660,0.290,-0.100,-0.490,-0.540
0.662,0.290,-0.120,-0.500,-0.530
0.664,0.280,-0.130,-0.490,-0.530
0.666,0.260,-0.130,-0.470,-0.520
0.668,0.240,-0.120,-0.450,-0.500
0.670,0.210,-0.100,-0.440,-0.450
0.672,0.190,-0.110,-0.430,-0.410
0.674,0.180,-0.130,-0.430,-0.400
0.676,0.180,-0.140,-0.410,-0.390
0.678,0.170,-0.160,-0.390,-0.380
0.680,0.160,-0.180,-0.360,-0.360
0.682,0.130,-0.170,-0.340,-0.310
0.684,0.070,-0.140,-0.290,-0.250
0.686,0.040,-0.110,-0.250,-0.200
0.688,0.020,-0.120,-0.230,-0.170
0.690,0.000,-0.150,-0.220,-0.160
0.692,-0.020,-0.180,-0.210,-0.160
0.694,-0.040,-0.200,-0.200,-0.140
0.696,-0.070,-0.210,-0.180,-0.090
0.698,-0.110,-0.190,-0.160,-0.040
0.700,-0.120,-0.170,-0.140,-0.010
0.702,-0.130,-0.160,-0.120,0.000
0.704,-0.150,-0.170,-0.100,0.010
0.706,-0.170,-0.180,-0.090,0.030
0.708,-0.180,-0.180,-0.070,0.040
0.710,-0.190,-0.180,-0.040,0.050
0.712,-0.220,-0.160,0.000,0.100
0.714,-0.220,-0.140,0.020,0.130
0.716,-0.210,-0.130,0.030,0.150
0.718,-0.210,-0.130,0.050,0.170
0.720,-0.220,-0.130,0.050,0.170
0.722,-0.220,-0.140,0.040,0.180
0.724,-0.220,-0.150,0.040,0.190
0.726,-0.240,-0.130,0.070,0.210
0.728,-0.250,-0.120,0.080,0.220
0.730,-0.240,-0.120,0.080,0.230
0.732,-0.230,-0.120,0.080,0.240
0.734,-0.220,-0.120,0.100,0.240
0.736,-0.230,-0.120,0.110,0.250
0.738,-0.230,-0.120,0.110,0.270
0.740,-0.240,-0.110,0.100,0.290
0.742,-0.250,-0.110,0.100,0.290
0.744,-0.250,-0.120,0.090,0.270
0.746,-0.230,-0.140,0.090,0.260
0.748,-0.230,-0.140,0.080,0.250
0.750,-0.240,-0.140,0.070,0.240
0.752,-0.240,-0.130,0.070,0.240
0.754,-0.240,-0.110,0.070,0.240
0.756,-0.240,-0.110,0.070,0.250
0.758,-0.230,-0.120,0.060,0.230
0.760,-0.210,-0.140,0.050,0.210
0.762,-0.180,-0.140,0.040,0.200
0.764,-0.160,-0.130,0.040,0.190
0.766,-0.160,-0.110,0.050,0.170
0.768,-0.170,-0.090,0.070,0.180
0.770,-0.170,-0.080,0.070,0.190
0.772,-0.160,-0.080,0.070,0.190
0.774,-0.160,-0.100,0.060,0.190
0.776,-0.150,-0.120,0.060,0.170
0.778,-0.130,-0.130,0.050,0.170
0.780,-0.120,-0.120,0.040,0.170
0.782,-0.130,-0.090,0.050,0.170
0.784,-0.120,-0.060,0.060,0.170
0.786,-0.100,-0.060,0.070,0.170
0.788,-0.090,-0.060,0.060,0.180
0.790,-0.080,-0.070,0.060,0.190
0.792,-0.080,-0.080,0.050,0.180
0.794,-0.080,-0.090,0.050,0.170
0.796,-0.090,-0.060,0.070,0.180
0.798,-0.090,-0.020,0.070,0.210
0.800,-0.090,0.000,0.070,0.210
0.802,-0.090,-0.010,0.070,0.210
0.804,-0.090,-0.010,0.070,0.220
0.806,-0.080,-0.020,0.070,0.220
0.808,-0.080,-0.030,0.080,0.220
0.810,-0.070,-0.050,0.100,0.240
0.812,-0.070,-0.050,0.110,0.260
0.814,-0.060,-0.040,0.100,0.270
0.816,-0.060,-0.030,0.100,0.280
0.818,-0.060,-0.020,0.100,0.280
0.820,-0.060,-0.020,0.100,0.280
0.822,-0.040,-0.020,0.100,0.280
0.824,-0.040,-0.020,0.100,0.280
0.826,-0.040,-0.010,0.100,0.270
0.828,-0.030,-0.020,0.090,0.260
0.830,-0.020,-0.020,0.080,0.250
0.832,-0.010,-0.010,0.080,0.240
0.834,0.000,0.000,0.080,0.250
0.836,0.000,0.000,0.080,0.250
0.838,-0.020,0.010,0.090,0.280
0.840,-0.030,0.030,0.100,0.300
0.842,-0.020,0.040,0.080,0.280
0.844,-0.010,0.040,0.070,0.260
0.846,0.000,0.040,0.070,0.250
0.848,0.010,0.030,0.080,0.240
0.850,0.020,0.040,0.100,0.240
0.852,0.020,0.060,0.120,0.260
0.854,0.010,0.080,0.130,0.280
0.856,0.020,0.070,0.130,0.290
0.858,0.030,0.040,0.110,0.290
0.860,0.030,0.030,0.100,0.270
0.862,0.030,0.020,0.090,0.260
0.864,0.040,0.030,0.100,0.260
0.866,0.050,0.060,0.110,0.270
0.868,0.050,0.080,0.110,0.290
0.870,0.060,0.080,0.110,0.300
0.872,0.060,0.070,0.100,0.300
0.874,0.060,0.060,0.090,0.280
0.876,0.060,0.040,0.080,0.260
0.878,0.060,0.030,0.080,0.250
0.880,0.030,0.060,0.090,0.260
0.882,0.020,0.090,0.110,0.270
0.884,0.020,0.090,0.110,0.260
0.886,0.020,0.090,0.100,0.250
0.888,0.030,0.080,0.090,0.240
0.890,0.040,0.070,0.080,0.240
0.892,0.030,0.040,0.060,0.220
0.894,0.020,0.030,0.070,0.220
0.896,0.010,0.050,0.090,0.240
0.898,0.040,0.060,0.090,0.230
0.900,0.050,0.070,0.080,0.230
0.902,0.060,0.080,0.070,0.230
0.904,0.060,0.080,0.060,0.230
0.906,0.070,0.070,0.050,0.230
0.908,0.060,0.070,0.050,0.220
0.910,0.070,0.070,0.050,0.210
0.912,0.070,0.060,0.040,0.210
0.914,0.080,0.050,0.030,0.220
0.916,0.080,0.060,0.030,0.220
0.918,0.080,0.060,0.050,0.220
0.920,0.090,0.080,0.050,0.210
0.922,0.080,0.090,0.060,0.220
0.924,0.060,0.110,0.080,0.230
0.926,0.070,0.090,0.080,0.210
0.928,0.080,0.080,0.070,0.210
0.930,0.090,0.060,0.040,0.200
0.932,0.090,0.060,0.020,0.190
0.934,0.090,0.080,0.020,0.190
0.936,0.090,0.090,0.030,0.220
0.938,0.060,0.110,0.050,0.250
0.940,0.050,0.090,0.040,0.250
0.942,0.050,0.060,0.030,0.230
0.944,0.040,0.040,0.030,0.220
0.946,0.040,0.020,0.020,0.220
0.948,0.040,0.010,0.010,0.210
0.950,0.020,0.030,0.020,0.210
0.952,0.000,0.060,0.020,0.220
0.954,0.000,0.050,0.020,0.220
0.956,-0.010,0.020,0.020,0.210
0.958,-0.010,0.000,0.000,0.200
0.960,0.000,-0.020,-0.010,0.180
0.962,0.000,-0.030,-0.010,0.180
0.964,-0.010,-0.010,0.000,0.210
0.966,-0.040,0.020,0.030,0.260
0.968,-0.050,0.030,0.030,0.250
0.970,-0.040,0.030,0.010,0.240
0.972,-0.040,0.000,0.000,0.230
0.974,-0.030,-0.030,0.000,0.220
0.976,-0.040,-0.060,0.010,0.200
0.978,-0.050,-0.040,0.020,0.210
0.980,-0.070,0.000,0.040,0.240
0.982,-0.040,0.000,0.050,0.230
0.984,-0.030,0.000,0.050,0.220
0.986,-0.030,0.000,0.060,0.230
0.988,-0.040,0.000,0.070,0.240
0.990,-0.040,-0.010,0.060,0.220
0.992,-0.050,-0.010,0.050,0.210
0.994,-0.040,0.000,0.060,0.200
0.996,-0.010,0.000,0.060,0.180
0.998,0.010,-0.010,0.070,0.160
1.000,0.020,0.000,0.070,0.150
1.002,0.030,0.010,0.080,0.140
1.004,0.030,0.010,0.080,0.130
1.006,0.040,0.010,0.080,0.140
1.008,0.030,0.020,0.090,0.160
1.010,0.030,0.010,0.090,0.150
1.012,0.030,0.010,0.070,0.130
1.014,0.050,0.000,0.050,0.110
1.016,0.070,0.000,0.040,0.090
1.018,0.070,0.000,0.030,0.090
1.020,0.060,0.010,0.040,0.100
1.022,0.050,0.030,0.030,0.130
1.024,0.070,0.010,0.010,0.110
1.026,0.090,0.000,0.000,0.080
1.028,0.090,-0.010,0.000,0.070
1.030,0.090,-0.010,0.010,0.060
1.032,0.100,0.000,0.010,0.040
1.034,0.090,0.000,0.010,0.030
1.036,0.080,0.040,0.020,0.040
1.038,0.090,0.060,0.020,0.050
1.040,0.130,0.040,0.000,0.030
1.042,0.120,0.010,0.000,0.010
1.044,0.110,0.010,-0.010,0.000
1.046,0.110,0.010,0.000,0.000
1.048,0.130,0.030,0.010,0.010
1.050,0.120,0.070,0.040,0.040
1.052,0.100,0.090,0.050,0.070
1.054,0.100,0.090,0.050,0.060
1.056,0.120,0.060,0.020,0.030
1.058,0.130,0.040,-0.010,0.010
1.060,0.120,0.020,-0.040,-0.010
1.062,0.120,0.010,-0.080,-0.030
1.064,0.120,0.020,-0.120,-0.050
1.066,0.140,0.010,-0.170,-0.110
1.068,0.170,0.000,-0.240,-0.170
1.070,0.190,-0.010,-0.240,-0.180
1.072,0.200,-0.010,-0.170,-0.160
1.074,0.210,0.050,-0.010,-0.080
1.076,0.210,0.170,0.230,0.060
1.078,0.210,0.360,0.550,0.280
1.080,0.270,0.640,0.960,0.500
1.082,0.390,0.990,1.430,0.730
1.084,0.520,1.390,1.950,0.990
1.086,0.640,1.800,2.490,1.280
1.088,0.760,2.220,3.050,1.580
1.090,0.870,2.660,3.600,1.890
1.092,0.960,3.110,4.150,2.190
1.094,1.060,3.490,4.630,2.440
1.096,1.140,3.790,4.970,2.620
1.098,1.180,3.970,5.150,2.710
1.100,1.170,4.010,5.160,2.740
1.102,1.080,3.910,5.020,2.720
1.104,0.890,3.600,4.640,2.600
1.106,0.630,3.080,4.040,2.370
1.108,0.360,2.420,3.310,2.050
1.110,0.140,1.810,2.620,1.730
1.112,0.000,1.330,2.010,1.420
1.114,-0.080,0.950,1.480,1.120
1.116,-0.110,0.650,1.030,0.830
1.118,-0.130,0.400,0.650,0.590
1.120,-0.150,0.210,0.310,0.390
1.122,-0.150,0.020,0.020,0.200
1.124,-0.150,-0.140,-0.210,0.020
1.126,-0.130,-0.260,-0.410,-0.130
1.128,-0.120,-0.370,-0.580,-0.240
1.130,-0.110,-0.460,-0.710,-0.330
1.132,-0.100,-0.520,-0.810,-0.390
1.134,-0.110,-0.530,-0.870,-0.440
1.136,-0.110,-0.560,-0.920,-0.480
1.138,-0.090,-0.600,-0.960,-0.520
1.140,-0.080,-0.630,-1.010,-0.560
1.142,-0.080,-0.650,-1.050,-0.600
1.144,-0.060,-0.680,-1.070,-0.630
1.146,-0.050,-0.670,-1.070,-0.630
1.148,-0.030,-0.640,-1.060,-0.620
1.150,-0.020,-0.610,-1.050,-0.620
1.152,-0.020,-0.600,-1.030,-0.630
1.154,-0.010,-0.610,-1.040,-0.650
1.156,0.000,-0.630,-1.030,-0.670
1.158,0.000,-0.640,-1.030,-0.690
1.160,0.000,-0.640,-1.020,-0.710
1.162,0.000,-0.620,-1.000,-0.700
1.164,0.000,-0.590,-0.980,-0.690
1.166,0.020,-0.560,-0.980,-0.700
1.168,0.030,-0.540,-0.970,-0.700
1.170,0.030,-0.540,-0.950,-0.700
1.172,0.030,-0.530,-0.940,-0.720
1.174,0.040,-0.540,-0.940,-0.720
1.176,0.020,-0.510,-0.910,-0.690
1.178,0.020,-0.490,-0.890,-0.680
1.180,0.040,-0.480,-0.880,-0.690
1.182,0.050,-0.470,-0.870,-0.700
1.184,0.040,-0.460,-0.860,-0.700
1.186,0.050,-0.460,-0.860,-0.700
1.188,0.040,-0.450,-0.840,-0.690
1.190,0.030,-0.440,-0.820,-0.680
1.192,0.030,-0.440,-0.810,-0.690
1.194,0.040,-0.450,-0.800,-0.700
1.196,0.060,-0.450,-0.790,-0.700
1.198,0.080,-0.430,-0.770,-0.690
1.200,0.080,-0.400,-0.760,-0.680
1.202,0.070,-0.370,-0.740,-0.660
1.204,0.040,-0.340,-0.730,-0.620
1.206,0.030,-0.330,-0.720,-0.600
1.208,0.020,-0.340,-0.720,-0.620
1.210,0.000,-0.340,-0.720,-0.640
1.212,0.000,-0.340,-0.720,-0.650
1.214,0.000,-0.330,-0.700,-0.650
1.216,0.010,-0.310,-0.690,-0.650
1.218,0.000,-0.280,-0.660,-0.630
1.220,0.000,-0.270,-0.660,-0.620
1.222,0.000,-0.270,-0.660,-0.630
1.224,0.010,-0.290,-0.670,-0.650
1.226,0.010,-0.300,-0.680,-0.680
1.228,0.020,-0.320,-0.680,-0.680
1.230,0.020,-0.310,-0.680,-0.680
1.232,0.020,-0.270,-0.670,-0.660
1.234,0.030,-0.240,-0.670,-0.650
1.236,0.050,-0.240,-0.650,-0.660
1.238,0.060,-0.240,-0.640,-0.690
1.240,0.090,-0.260,-0.640,-0.700
1.242,0.110,-0.260,-0.650,-0.710
1.244,0.140,-0.260,-0.660,-0.730
1.246,0.150,-0.240,-0.640,-0.710
1.248,0.160,-0.210,-0.610,-0.710
1.250,0.180,-0.190,-0.610,-0.720
1.252,0.200,-0.160,-0.610,-0.730
1.254,0.230,-0.150,-0.610,-0.740
1.256,0.240,-0.160,-0.610,-0.760
1.258,0.240,-0.170,-0.610,-0.780
1.260,0.240,-0.150,-0.610,-0.780
1.262,0.250,-0.130,-0.600,-0.770
1.264,0.280,-0.110,-0.590,-0.780
1.266,0.300,-0.100,-0.580,-0.790
1.268,0.320,-0.090,-0.570,-0.800
1.270,0.350,-0.080,-0.570,-0.810
1.272,0.350,-0.090,-0.570,-0.820
1.274,0.330,-0.070,-0.570,-0.800
1.276,0.320,-0.050,-0.560,-0.800
1.278,0.320,-0.050,-0.560,-0.820
1.280,0.340,-0.050,-0.550,-0.820
1.282,0.360,-0.030,-0.550,-0.830
1.284,0.370,-0.030,-0.540,-0.830
1.286,0.370,-0.040,-0.540,-0.820
1.288,0.370,-0.040,-0.520,-0.790
1.290,0.370,-0.040,-0.500,-0.770
1.292,0.370,-0.040,-0.500,-0.780
1.294,0.370,-0.060,-0.500,-0.790
1.296,0.360,-0.070,-0.500,-0.790
1.298,0.350,-0.080,-0.500,-0.790
1.300,0.330,-0.070,-0.490,-0.780
1.302,0.310,-0.070,-0.470,-0.750
1.304,0.290,-0.060,-0.460,-0.710
1.306,0.270,-0.080,-0.470,-0.690
1.308,0.240,-0.110,-0.480,-0.680
1.310,0.220,-0.130,-0.480,-0.680
1.312,0.200,-0.140,-0.470,-0.660
1.314,0.180,-0.150,-0.450,-0.630
1.316,0.140,-0.120,-0.440,-0.580
1.318,0.110,-0.110,-0.410,-0.530
1.320,0.080,-0.110,-0.390,-0.510
1.322,0.040,-0.130,-0.360,-0.480
1.324,0.020,-0.150,-0.350,-0.450
1.326,0.000,-0.160,-0.320,-0.420
1.328,-0.010,-0.170,-0.290,-0.380
1.330,-0.040,-0.150,-0.250,-0.310
1.332,-0.060,-0.110,-0.200,-0.260
1.334,-0.080,-0.100,-0.170,-0.220
1.336,-0.110,-0.100,-0.150,-0.180
1.338,-0.140,-0.120,-0.120,-0.150
1.340,-0.170,-0.160,-0.100,-0.130
1.342,-0.190,-0.190,-0.080,-0.110
1.344,-0.220,-0.190,-0.040,-0.060
1.346,-0.240,-0.160,-0.010,0.000
1.348,-0.250,-0.150,0.000,0.010
1.350,-0.260,-0.130,0.020,0.020
1.352,-0.280,-0.130,0.020,0.040
1.354,-0.280,-0.120,0.030,0.050
1.356,-0.270,-0.140,0.040,0.070
1.358,-0.290,-0.150,0.060,0.100
1.360,-0.300,-0.160,0.070,0.130
1.362,-0.290,-0.160,0.090,0.130
1.364,-0.270,-0.140,0.100,0.130
1.366,-0.270,-0.130,0.110,0.130
1.368,-0.260,-0.110,0.130,0.130
1.370,-0.260,-0.090,0.150,0.130
1.372,-0.270,-0.060,0.160,0.130
1.374,-0.280,-0.050,0.150,0.150
1.376,-0.290,-0.070,0.130,0.150
1.378,-0.290,-0.070,0.120,0.140
1.380,-0.290,-0.070,0.120,0.140
1.382,-0.290,-0.070,0.120,0.130
1.384,-0.290,-0.050,0.110,0.130
1.386,-0.290,-0.030,0.120,0.150
1.388,-0.290,-0.020,0.120,0.160
1.390,-0.280,-0.030,0.110,0.150
1.392,-0.280,-0.050,0.090,0.130
1.394,-0.260,-0.070,0.070,0.120
1.396,-0.240,-0.080,0.050,0.120
1.398,-0.220,-0.070,0.050,0.120
1.400,-0.230,-0.030,0.060,0.140
1.402,-0.230,0.000,0.080,0.160
1.404,-0.210,0.000,0.080,0.150
1.406,-0.200,0.000,0.070,0.140
1.408,-0.200,-0.010,0.050,0.130
1.410,-0.200,-0.020,0.040,0.100
1.412,-0.190,-0.030,0.040,0.100
1.414,-0.170,-0.020,0.040,0.120
1.416,-0.170,0.000,0.050,0.130
1.418,-0.160,0.010,0.060,0.130
1.420,-0.150,0.020,0.060,0.130
1.422,-0.140,0.010,0.060,0.110
1.424,-0.130,-0.010,0.050,0.110
1.426,-0.140,-0.030,0.050,0.100
1.428,-0.130,-0.020,0.060,0.110
1.430,-0.130,0.000,0.080,0.120
1.432,-0.120,0.010,0.080,0.120
1.434,-0.120,0.010,0.070,0.120
1.436,-0.120,0.020,0.070,0.110
1.438,-0.100,0.010,0.060,0.100
1.440,-0.090,-0.010,0.040,0.100
1.442,-0.090,-0.010,0.040,0.120
1.444,-0.090,0.000,0.050,0.130
1.446,-0.070,0.000,0.060,0.130
1.448,-0.050,0.030,0.070,0.110
1.450,-0.040,0.040,0.070,0.100
1.452,-0.040,0.040,0.070,0.110
1.454,-0.020,0.050,0.070,0.120
1.456,-0.020,0.060,0.080,0.150
1.458,-0.030,0.070,0.080,0.150
1.460,-0.020,0.060,0.080,0.130
1.462,0.000,0.060,0.080,0.130
1.464,0.000,0.060,0.090,0.130
1.466,0.000,0.080,0.090,0.120
1.468,0.000,0.090,0.110,0.140
1.470,0.000,0.110,0.130,0.180
1.472,-0.010,0.130,0.150,0.210
1.474,-0.020,0.120,0.150,0.200
1.476,-0.020,0.100,0.150,0.190
1.478,0.000,0.100,0.140,0.180
1.480,0.010,0.100,0.130,0.170
1.482,0.020,0.100,0.120,0.170
1.484,0.000,0.120,0.140,0.180
1.486,-0.020,0.150,0.160,0.200
1.488,-0.010,0.150,0.150,0.210
1.490,-0.010,0.130,0.140,0.200
1.492,-0.010,0.120,0.130,0.180
1.494,0.000,0.100,0.110,0.150
1.496,0.000,0.090,0.100,0.140
1.498,0.010,0.110,0.100,0.150
1.500,0.000,0.140,0.100,0.170
1.502,0.000,0.150,0.110,0.170
1.504,0.000,0.150,0.110,0.170
1.506,0.010,0.120,0.090,0.170
1.508,0.010,0.090,0.060,0.160
1.510,0.010,0.070,0.050,0.150
1.512,0.000,0.080,0.040,0.160
1.514,0.000,0.110,0.050,0.180
1.516,0.000,0.110,0.060,0.190
1.518,0.000,0.110,0.070,0.200
1.520,0.010,0.110,0.060,0.210
1.522,0.010,0.100,0.060,0.200
1.524,0.020,0.090,0.060,0.180
1.526,0.010,0.090,0.060,0.180
1.528,0.000,0.090,0.080,0.210
1.530,0.010,0.090,0.080,0.220
1.532,0.030,0.100,0.080,0.200
1.534,0.040,0.110,0.070,0.190
1.536,0.040,0.110,0.070,0.190
1.538,0.030,0.100,0.050,0.190
1.540,0.030,0.080,0.050,0.170
1.542,0.020,0.080,0.050,0.180
1.544,0.030,0.070,0.040,0.170
1.546,0.040,0.060,0.030,0.160
1.548,0.040,0.070,0.030,0.150
1.550,0.020,0.090,0.040,0.150
1.552,0.020,0.090,0.050,0.160
1.554,0.020,0.090,0.050,0.180
1.556,0.010,0.110,0.050,0.200
1.558,0.000,0.100,0.050,0.200
1.560,0.000,0.080,0.040,0.190
1.562,-0.010,0.070,0.040,0.180
1.564,-0.010,0.070,0.030,0.180
1.566,0.000,0.080,0.040,0.170
1.568,0.000,0.090,0.060,0.190
1.570,-0.020,0.110,0.070,0.230
1.572,-0.010,0.110,0.080,0.220
1.574,0.000,0.080,0.060,0.200
1.576,0.000,0.060,0.050,0.180
1.578,0.010,0.060,0.020,0.150
1.580,0.030,0.060,0.010,0.140
1.582,0.020,0.070,0.000,0.150
1.584,0.010,0.100,0.010,0.170
1.586,0.010,0.100,0.020,0.170
1.588,0.010,0.090,0.020,0.160
1.590,0.020,0.060,0.010,0.140
1.592,0.020,0.040,0.000,0.120
1.594,0.030,0.020,-0.010,0.110
1.596,0.030,0.030,-0.010,0.110
1.598,0.030,0.060,0.000,0.110
1.600,0.030,0.090,0.000,0.110
1.602,0.040,0.100,0.000,0.100
1.604,0.040,0.090,0.000,0.100
1.606,0.040,0.060,-0.010,0.090
1.608,0.040,0.040,-0.020,0.080
1.610,0.040,0.030,-0.020,0.090
1.612,0.020,0.040,-0.010,0.110
1.614,0.010,0.040,0.000,0.120
1.616,0.000,0.040,0.000,0.120
1.618,-0.010,0.030,0.000,0.120
1.620,-0.010,0.030,0.000,0.120
1.622,0.000,0.000,-0.010,0.120
1.624,-0.010,0.000,-0.020,0.110
1.626,-0.020,0.010,-0.020,0.110
1.628,-0.020,-0.010,-0.020,0.110
1.630,-0.010,-0.020,-0.020,0.110
1.632,-0.010,-0.020,-0.010,0.110
1.634,-0.020,-0.010,0.000,0.120
1.636,-0.030,0.000,0.000,0.130
1.638,-0.030,0.000,0.000,0.150
1.640,-0.060,0.020,0.010,0.190
1.642,-0.070,0.030,0.020,0.170
1.644,-0.070,0.020,0.000,0.150
1.646,-0.060,0.010,0.000,0.140
1.648,-0.050,0.010,0.010,0.140
1.650,-0.050,0.010,0.030,0.160
1.652,-0.060,0.030,0.050,0.170
1.654,-0.080,0.060,0.070,0.190
1.656,-0.080,0.050,0.090,0.190
1.658,-0.070,0.040,0.080,0.170
1.660,-0.060,0.020,0.060,0.170
1.662,-0.050,0.010,0.050,0.170
1.664,-0.030,0.010,0.050,0.160
1.666,-0.020,0.040,0.050,0.140
1.668,-0.040,0.070,0.060,0.150
1.670,-0.030,0.080,0.060,0.150
1.672,-0.010,0.070,0.050,0.150
1.674,-0.010,0.040,0.050,0.130
1.676,-0.010,0.010,0.050,0.110
1.678,-0.010,0.000,0.030,0.090
1.680,-0.020,0.000,0.010,0.100
1.682,-0.030,0.040,0.030,0.130
1.684,-0.030,0.070,0.040,0.110
1.686,-0.020,0.080,0.030,0.100
1.688,-0.010,0.080,0.000,0.080
1.690,0.000,0.050,-0.020,0.060
1.692,0.000,0.040,-0.030,0.040
1.694,0.010,0.020,-0.030,0.020
1.696,0.020,0.030,-0.020,0.030
1.698,0.020,0.040,-0.010,0.030
1.700,0.020,0.060,0.000,0.020
1.702,0.030,0.070,0.000,0.020
1.704,0.030,0.050,0.010,0.010
1.706,0.030,0.040,0.010,0.000
1.708,0.030,0.040,0.000,0.000
1.710,0.010,0.060,0.000,0.000
1.712,0.010,0.070,0.000,0.010
1.714,0.020,0.070,0.000,0.000
1.716,0.040,0.070,0.000,0.000
1.718,0.050,0.070,0.000,0.000
1.720,0.050,0.070,0.000,0.000
1.722,0.060,0.050,0.000,0.000
1.724,0.050,0.080,0.000,0.000
1.726,0.040,0.080,-0.010,-0.020
1.728,0.040,0.050,-0.040,-0.060
1.730,0.060,0.020,-0.070,-0.110
1.732,0.080,0.020,-0.110,-0.150
1.734,0.100,0.000,-0.170,-0.210
1.736,0.120,-0.020,-0.240,-0.270
1.738,0.130,-0.020,-0.260,-0.280
1.740,0.140,0.000,-0.220,-0.250
1.742,0.150,0.040,-0.080,-0.170
1.744,0.170,0.140,0.140,-0.030
1.746,0.180,0.300,0.470,0.170
1.748,0.240,0.560,0.870,0.390
1.750,0.350,0.920,1.340,0.620
1.752,0.470,1.320,1.850,0.890
1.754,0.600,1.730,2.400,1.160
1.756,0.720,2.140,2.970,1.450
1.758,0.840,2.560,3.540,1.740
1.760,0.960,2.980,4.090,2.040
1.762,1.050,3.390,4.590,2.310
1.764,1.130,3.740,4.980,2.520
1.766,1.150,3.970,5.200,2.650
1.768,1.130,4.040,5.270,2.710
1.770,1.040,3.960,5.150,2.700
1.772,0.890,3.690,4.810,2.590
1.774,0.640,3.170,4.230,2.370
1.776,0.350,2.510,3.520,2.090
1.778,0.110,1.880,2.780,1.780
1.780,-0.050,1.380,2.140,1.470
1.782,-0.130,0.980,1.590,1.160
1.784,-0.170,0.650,1.120,0.870
1.786,-0.190,0.380,0.720,0.610
1.788,-0.200,0.140,0.370,0.390
1.790,-0.210,-0.060,0.070,0.190
1.792,-0.220,-0.220,-0.170,0.000
1.794,-0.220,-0.320,-0.360,-0.120
1.796,-0.210,-0.410,-0.520,-0.240
1.798,-0.190,-0.490,-0.650,-0.350
1.800,-0.180,-0.540,-0.750,-0.440
1.802,-0.160,-0.590,-0.830,-0.520
1.804,-0.160,-0.630,-0.910,-0.580
1.806,-0.150,-0.670,-0.970,-0.640
1.808,-0.160,-0.700,-1.030,-0.650
1.810,-0.160,-0.710,-1.070,-0.670
1.812,-0.130,-0.730,-1.090,-0.710
1.814,-0.100,-0.740,-1.100,-0.740
1.816,-0.090,-0.720,-1.090,-0.770
1.818,-0.070,-0.700,-1.080,-0.800
1.820,-0.060,-0.690,-1.080,-0.820
1.822,-0.070,-0.660,-1.060,-0.810
1.824,-0.070,-0.650,-1.060,-0.820
1.826,-0.060,-0.650,-1.060,-0.850
1.828,-0.040,-0.650,-1.060,-0.870
1.830,-0.020,-0.630,-1.040,-0.880
1.832,-0.020,-0.620,-1.010,-0.880
1.834,-0.010,-0.600,-0.980,-0.870
1.836,-0.030,-0.550,-0.960,-0.860
1.838,-0.030,-0.530,-0.940,-0.860
1.840,-0.030,-0.530,-0.930,-0.870
1.842,-0.020,-0.540,-0.940,-0.890
1.844,-0.010,-0.540,-0.940,-0.900
1.846,0.000,-0.550,-0.940,-0.900
1.848,0.030,-0.540,-0.940,-0.890
1.850,0.020,-0.520,-0.920,-0.870
1.852,0.010,-0.490,-0.900,-0.860
1.854,0.000,-0.480,-0.900,-0.860
1.856,0.010,-0.490,-0.890,-0.880
1.858,0.020,-0.490,-0.890,-0.880
1.860,0.030,-0.500,-0.880,-0.890
1.862,0.030,-0.490,-0.880,-0.890
1.864,0.020,-0.450,-0.850,-0.870
1.866,0.020,-0.410,-0.820,-0.860
1.868,0.030,-0.400,-0.820,-0.860
1.870,0.030,-0.400,-0.820,-0.870
1.872,0.040,-0.400,-0.810,-0.870
1.874,0.040,-0.410,-0.810,-0.860
1.876,0.050,-0.420,-0.800,-0.860
1.878,0.040,-0.410,-0.780,-0.840
1.880,0.050,-0.380,-0.780,-0.830
1.882,0.050,-0.370,-0.770,-0.830
1.884,0.050,-0.360,-0.760,-0.850
1.886,0.060,-0.350,-0.760,-0.860
1.888,0.060,-0.340,-0.750,-0.870
1.890,0.070,-0.350,-0.750,-0.870
1.892,0.060,-0.330,-0.730,-0.850
1.894,0.060,-0.320,-0.730,-0.840
1.896,0.070,-0.320,-0.710,-0.840
1.898,0.080,-0.310,-0.690,-0.840
1.900,0.080,-0.290,-0.670,-0.840
1.902,0.080,-0.270,-0.670,-0.840
1.904,0.090,-0.260,-0.660,-0.840
1.906,0.090,-0.230,-0.660,-0.840
1.908,0.090,-0.220,-0.660,-0.820
1.910,0.100,-0.240,-0.660,-0.830
1.912,0.100,-0.240,-0.660,-0.840
1.914,0.130,-0.240,-0.670,-0.840
1.916,0.140,-0.220,-0.680,-0.860
1.918,0.150,-0.210,-0.690,-0.860
1.920,0.150,-0.180,-0.690,-0.850
1.922,0.160,-0.170,-0.680,-0.840
1.924,0.190,-0.180,-0.680,-0.850
1.926,0.210,-0.190,-0.680,-0.860
1.928,0.230,-0.190,-0.690,-0.870
1.930,0.240,-0.180,-0.680,-0.880
1.932,0.270,-0.150,-0.670,-0.890
1.934,0.280,-0.110,-0.650,-0.880
1.936,0.280,-0.090,-0.650,-0.860
1.938,0.300,-0.100,-0.650,-0.870
1.940,0.320,-0.110,-0.660,-0.870
1.942,0.330,-0.110,-0.650,-0.880
1.944,0.340,-0.110,-0.650,-0.890
1.946,0.360,-0.110,-0.630,-0.890
1.948,0.350,-0.070,-0.590,-0.840
1.950,0.330,-0.020,-0.560,-0.810
1.952,0.320,-0.020,-0.560,-0.810
1.954,0.320,-0.030,-0.560,-0.810
1.956,0.330,-0.050,-0.550,-0.820
1.958,0.330,-0.080,-0.540,-0.830
1.960,0.320,-0.100,-0.560,-0.850
1.962,0.310,-0.080,-0.560,-0.830
1.964,0.300,-0.060,-0.540,-0.800
1.966,0.290,-0.050,-0.540,-0.800
1.968,0.290,-0.060,-0.530,-0.790
1.970,0.280,-0.070,-0.520,-0.770
1.972,0.260,-0.100,-0.500,-0.750
1.974,0.230,-0.120,-0.500,-0.730
1.976,0.200,-0.120,-0.500,-0.700
1.978,0.190,-0.100,-0.490,-0.670
1.980,0.180,-0.110,-0.480,-0.660
1.982,0.160,-0.120,-0.460,-0.630
1.984,0.140,-0.110,-0.440,-0.600
1.986,0.120,-0.110,-0.420,-0.570
1.988,0.100,-0.130,-0.390,-0.530
1.990,0.050,-0.150,-0.340,-0.470
1.992,0.000,-0.140,-0.290,-0.410
1.994,-0.010,-0.150,-0.260,-0.380
1.996,-0.020,-0.170,-0.240,-0.330
1.998,-0.050,-0.180,-0.220,-0.290
2.000,-0.080,-0.180,-0.200,-0.260
2.002,-0.120,-0.180,-0.160,-0.220
2.004,-0.160,-0.160,-0.120,-0.150
2.006,-0.190,-0.150,-0.080,-0.080
2.008,-0.210,-0.160,-0.060,-0.060
2.010,-0.230,-0.180,-0.050,-0.040
2.012,-0.240,-0.190,-0.020,-0.020
2.014,-0.250,-0.200,0.010,0.010
2.016,-0.270,-0.190,0.040,0.040
2.018,-0.300,-0.160,0.050,0.080
2.020,-0.320,-0.140,0.060,0.120
2.022,-0.320,-0.130,0.080,0.150
2.024,-0.330,-0.140,0.090,0.160
2.026,-0.350,-0.150,0.100,0.170
2.028,-0.350,-0.160,0.110,0.170
2.030,-0.360,-0.160,0.110,0.170
2.032,-0.380,-0.150,0.130,0.200
2.034,-0.410,-0.120,0.170,0.250
2.036,-0.420,-0.110,0.190,0.250
2.038,-0.410,-0.130,0.190,0.240
2.040,-0.400,-0.150,0.180,0.230
2.042,-0.390,-0.150,0.170,0.220
2.044,-0.380,-0.160,0.140,0.210
2.046,-0.380,-0.140,0.130,0.220
2.048,-0.390,-0.090,0.150,0.250
2.050,-0.400,-0.070,0.160,0.240
2.052,-0.390,-0.070,0.160,0.230
2.054,-0.370,-0.100,0.140,0.220
2.056,-0.370,-0.140,0.120,0.220
2.058,-0.380,-0.160,0.110,0.200
2.060,-0.390,-0.160,0.110,0.190
2.062,-0.390,-0.150,0.110,0.200
2.064,-0.370,-0.150,0.100,0.190
2.066,-0.370,-0.130,0.080,0.180
2.068,-0.370,-0.110,0.080,0.170
2.070,-0.370,-0.100,0.080,0.170
2.072,-0.370,-0.110,0.070,0.170
2.074,-0.380,-0.100,0.080,0.190
2.076,-0.410,-0.080,0.110,0.210
2.078,-0.400,-0.080,0.120,0.200
2.080,-0.380,-0.100,0.110,0.190
2.082,-0.370,-0.100,0.100,0.180
2.084,-0.360,-0.100,0.100,0.170
2.086,-0.350,-0.100,0.100,0.160
2.088,-0.340,-0.090,0.100,0.160
2.090,-0.340,-0.080,0.110,0.170
2.092,-0.330,-0.100,0.100,0.160
2.094,-0.340,-0.100,0.080,0.140
2.096,-0.320,-0.110,0.070,0.120
2.098,-0.300,-0.100,0.060,0.100
2.100,-0.300,-0.090,0.050,0.090
2.102,-0.310,-0.070,0.060,0.090
2.104,-0.310,-0.040,0.070,0.100
2.106,-0.300,-0.050,0.070,0.090
2.108,-0.280,-0.070,0.050,0.070
2.110,-0.260,-0.090,0.030,0.060
2.112,-0.230,-0.100,0.010,0.070
2.114,-0.220,-0.100,0.000,0.080
2.116,-0.220,-0.070,0.010,0.090
2.118,-0.240,-0.050,0.040,0.120
2.120,-0.240,-0.040,0.050,0.120
2.122,-0.220,-0.060,0.050,0.110
2.124,-0.200,-0.060,0.030,0.080
2.126,-0.210,-0.060,0.010,0.060
2.128,-0.200,-0.060,0.000,0.050
2.130,-0.200,-0.050,0.000,0.070
2.132,-0.210,-0.010,0.010,0.100
2.134,-0.210,0.010,0.010,0.100
2.136,-0.200,0.020,0.010,0.080
2.138,-0.190,0.000,0.000,0.060
2.140,-0.180,0.000,0.000,0.050
2.142,-0.170,-0.020,-0.010,0.020
2.144,-0.160,-0.020,-0.020,0.000
2.146,-0.160,0.000,0.000,0.010
2.148,-0.150,0.000,0.000,0.010
2.150,-0.130,0.010,0.000,0.000
2.152,-0.120,0.010,0.000,0.000
2.154,-0.100,0.010,0.000,0.000
2.156,-0.090,0.000,-0.010,0.000
2.158,-0.090,0.000,-0.010,0.010
2.160,-0.100,0.010,0.000,0.020
2.162,-0.090,0.010,0.000,0.010
2.164,-0.070,0.020,-0.010,0.010
2.166,-0.050,0.030,-0.010,0.010
2.168,-0.050,0.020,-0.010,0.010
2.170,-0.050,0.020,-0.010,0.000
2.172,-0.060,0.010,-0.020,0.000
2.174,-0.070,0.020,-0.020,0.000
2.176,-0.070,0.010,-0.030,0.000
2.178,-0.070,0.000,-0.050,-0.010
2.180,-0.070,0.000,-0.040,-0.020
2.182,-0.070,0.000,-0.030,-0.020
2.184,-0.070,0.000,-0.010,-0.020
2.186,-0.070,0.000,0.000,-0.010
2.188,-0.090,0.020,0.010,0.000
2.190,-0.070,0.010,0.000,0.000
2.192,-0.050,0.000,-0.010,-0.020
2.194,-0.050,-0.010,-0.010,-0.030
2.196,-0.030,-0.020,-0.010,-0.020
2.198,-0.020,-0.020,-0.020,-0.030
2.200,-0.030,0.000,-0.010,-0.020
2.202,-0.040,0.010,0.000,0.000
2.204,-0.040,0.010,0.000,0.010
2.206,-0.040,0.000,-0.020,0.000
2.208,-0.050,-0.020,-0.040,0.000
2.210,-0.050,-0.040,-0.050,-0.020
2.212,-0.050,-0.040,-0.060,-0.020
2.214,-0.040,-0.030,-0.060,-0.010
2.216,-0.050,0.000,-0.040,0.000
2.218,-0.060,0.000,-0.030,-0.010
2.220,-0.060,0.010,-0.040,0.000
2.222,-0.050,0.000,-0.050,-0.010
2.224,-0.050,-0.020,-0.060,-0.010
2.226,-0.060,-0.030,-0.070,-0.020
2.228,-0.080,-0.030,-0.080,-0.010
2.230,-0.090,-0.010,-0.070,0.010
2.232,-0.080,0.000,-0.060,0.010
2.234,-0.070,0.000,-0.060,0.000
2.236,-0.060,0.000,-0.070,-0.010
2.238,-0.050,0.000,-0.070,-0.010
2.240,-0.050,-0.030,-0.070,-0.030
2.242,-0.050,-0.040,-0.080,-0.050
2.244,-0.070,-0.030,-0.080,-0.050
2.246,-0.070,-0.020,-0.080,-0.040
2.248,-0.050,-0.020,-0.090,-0.050
2.250,-0.040,0.000,-0.090,-0.050
2.252,-0.040,0.000,-0.100,-0.050
2.254,-0.040,0.000,-0.100,-0.050
2.256,-0.040,-0.010,-0.110,-0.050
2.258,-0.050,0.000,-0.100,-0.040
2.260,-0.040,-0.010,-0.100,-0.040
2.262,-0.020,-0.020,-0.100,-0.050
2.264,-0.020,-0.020,-0.110,-0.050
2.266,-0.020,-0.010,-0.100,-0.050
2.268,-0.020,0.000,-0.090,-0.050
2.270,-0.020,0.010,-0.080,-0.050
2.272,-0.030,0.020,-0.080,-0.020
2.274,-0.020,0.010,-0.080,-0.030
2.276,-0.010,0.000,-0.080,-0.070
2.278,0.000,-0.020,-0.090,-0.080
2.280,0.000,-0.040,-0.090,-0.080
2.282,0.020,-0.030,-0.100,-0.080
2.284,0.010,-0.010,-0.090,-0.080
2.286,0.000,0.010,-0.080,-0.040
2.288,0.000,0.020,-0.080,-0.020
2.290,0.000,0.010,-0.090,-0.030
2.292,-0.010,0.000,-0.120,-0.050
2.294,-0.020,-0.030,-0.140,-0.070
2.296,-0.020,-0.040,-0.140,-0.070
2.298,-0.030,-0.040,-0.140,-0.070
2.300,-0.050,-0.010,-0.120,-0.050
2.302,-0.050,0.000,-0.110,-0.060
2.304,-0.050,0.000,-0.120,-0.060
2.306,-0.040,-0.030,-0.130,-0.060
2.308,-0.040,-0.050,-0.140,-0.080
2.310,-0.040,-0.060,-0.130,-0.100
2.312,-0.030,-0.080,-0.120,-0.100
2.314,-0.030,-0.070,-0.100,-0.070
2.316,-0.030,-0.050,-0.090,-0.060
2.318,-0.050,-0.040,-0.090,-0.060
2.320,-0.040,-0.040,-0.090,-0.060
2.322,-0.040,-0.050,-0.090,-0.040
2.324,-0.040,-0.070,-0.100,-0.030
2.326,-0.050,-0.080,-0.110,-0.030
2.328,-0.060,-0.050,-0.100,0.000
2.330,-0.040,-0.040,-0.090,0.000
2.332,-0.040,-0.030,-0.080,0.000
2.334,-0.040,-0.020,-0.080,0.000
2.336,-0.060,-0.030,-0.070,0.000
2.338,-0.070,-0.050,-0.070,0.000
2.340,-0.070,-0.060,-0.060,0.000
2.342,-0.080,-0.050,-0.050,0.000
2.344,-0.080,-0.040,-0.040,0.000
2.346,-0.070,-0.050,-0.030,0.000
2.348,-0.070,-0.050,-0.020,-0.010
2.350,-0.070,-0.030,-0.010,-0.020
2.352,-0.070,-0.020,-0.010,-0.020
2.354,-0.070,-0.010,0.000,-0.020
2.356,-0.080,0.000,0.000,-0.010
2.358,-0.080,0.010,-0.020,-0.030
2.360,-0.080,0.000,-0.040,-0.030
2.362,-0.070,-0.010,-0.060,-0.020
2.364,-0.070,-0.010,-0.060,-0.020
2.366,-0.080,0.000,-0.050,-0.030
2.368,-0.080,0.000,-0.060,-0.020
2.370,-0.090,0.020,-0.070,-0.010
2.372,-0.070,0.020,-0.070,-0.020
2.374,-0.060,0.000,-0.080,-0.040
2.376,-0.070,-0.020,-0.080,-0.060
2.378,-0.070,-0.030,-0.090,-0.070
2.380,-0.070,-0.040,-0.090,-0.060
2.382,-0.050,-0.030,-0.070,-0.050
2.384,-0.060,0.000,-0.030,-0.010
2.386,-0.070,0.030,-0.030,-0.010
2.388,-0.040,0.020,-0.040,-0.030
2.390,-0.020,0.000,-0.050,-0.050
2.392,-0.020,0.000,-0.050,-0.070
2.394,-0.010,-0.010,-0.050,-0.080
2.396,0.000,-0.010,-0.040,-0.070
2.398,-0.010,0.020,-0.030,-0.050
2.400,-0.020,0.050,-0.020,-0.060
2.402,-0.010,0.060,-0.020,-0.070
2.404,0.000,0.060,-0.020,-0.070
2.406,0.020,0.040,-0.020,-0.080
2.408,0.030,0.020,-0.030,-0.090
2.410,0.030,0.020,-0.030,-0.090
2.412,0.020,0.030,-0.040,-0.080
2.414,0.020,0.040,-0.060,-0.090
2.416,0.030,0.040,-0.070,-0.120
2.418,0.040,0.040,-0.090,-0.140
2.420,0.040,0.020,-0.120,-0.180
2.422,0.060,0.000,-0.190,-0.250
2.424,0.080,-0.030,-0.260,-0.320
2.426,0.090,-0.050,-0.310,-0.360
2.428,0.110,-0.050,-0.330,-0.390
2.430,0.140,-0.040,-0.310,-0.380
2.432,0.170,0.010,-0.180,-0.310
2.434,0.170,0.130,0.040,-0.160
2.436,0.160,0.280,0.350,0.040
2.438,0.200,0.520,0.730,0.260
2.440,0.280,0.840,1.170,0.510
2.442,0.410,1.210,1.660,0.760
2.444,0.550,1.610,2.190,1.030
2.446,0.670,2.030,2.760,1.330
2.448,0.800,2.490,3.340,1.640
2.450,0.910,2.950,3.910,1.950
2.452,1.000,3.360,4.440,2.240
2.454,1.050,3.690,4.830,2.470
2.456,1.070,3.890,5.050,2.610
2.458,1.070,3.940,5.090,2.650
2.460,1.000,3.840,4.970,2.620
2.462,0.840,3.520,4.600,2.480
2.464,0.550,2.970,4.020,2.280
2.466,0.230,2.330,3.320,2.020
2.468,-0.010,1.750,2.630,1.750
2.470,-0.160,1.280,2.010,1.450
2.472,-0.230,0.880,1.470,1.150
2.474,-0.270,0.540,1.010,0.850
2.476,-0.290,0.270,0.610,0.580
2.478,-0.290,0.050,0.280,0.350
2.480,-0.280,-0.110,0.010,0.150
2.482,-0.280,-0.230,-0.210,0.000
2.484,-0.270,-0.320,-0.400,-0.140
2.486,-0.240,-0.430,-0.560,-0.260
2.488,-0.210,-0.530,-0.700,-0.370
2.490,-0.180,-0.620,-0.820,-0.460
2.492,-0.150,-0.690,-0.910,-0.560
2.494,-0.130,-0.730,-0.990,-0.630
2.496,-0.120,-0.720,-1.010,-0.660
2.498,-0.120,-0.710,-1.030,-0.680
2.500,-0.100,-0.710,-1.050,-0.720
2.502,-0.080,-0.710,-1.070,-0.740
2.504,-0.050,-0.710,-1.090,-0.750
2.506,-0.020,-0.730,-1.110,-0.780
2.508,-0.010,-0.740,-1.100,-0.800
2.510,-0.010,-0.720,-1.100,-0.800
2.512,0.000,-0.720,-1.090,-0.790
2.514,0.010,-0.710,-1.080,-0.790
2.516,0.020,-0.690,-1.060,-0.790
2.518,0.020,-0.680,-1.040,-0.800
2.520,0.020,-0.680,-1.020,-0.800
2.522,0.020,-0.710,-1.010,-0.800
2.524,0.000,-0.700,-0.990,-0.780
2.526,-0.020,-0.680,-0.980,-0.780
2.528,-0.010,-0.680,-0.960,-0.790
2.530,0.000,-0.680,-0.960,-0.790
2.532,0.000,-0.670,-0.940,-0.770
2.534,0.000,-0.650,-0.920,-0.760
2.536,0.000,-0.630,-0.900,-0.750
2.538,-0.010,-0.580,-0.860,-0.730
2.540,-0.030,-0.550,-0.840,-0.710
2.542,-0.030,-0.560,-0.820,-0.740
2.544,-0.010,-0.560,-0.820,-0.760
2.546,0.000,-0.560,-0.820,-0.760
2.548,0.000,-0.550,-0.820,-0.750
2.550,0.000,-0.520,-0.810,-0.740
2.552,0.000,-0.490,-0.780,-0.700
2.554,-0.010,-0.470,-0.760,-0.680
2.556,0.000,-0.480,-0.770,-0.670
2.558,0.000,-0.500,-0.780,-0.670
2.560,0.000,-0.500,-0.780,-0.690
2.562,0.010,-0.500,-0.770,-0.700
2.564,0.010,-0.480,-0.750,-0.690
2.566,0.000,-0.440,-0.740,-0.670
2.568,0.000,-0.410,-0.720,-0.670
2.570,0.000,-0.400,-0.700,-0.670
2.572,0.020,-0.420,-0.690,-0.670
2.574,0.030,-0.440,-0.690,-0.670
2.576,0.030,-0.440,-0.690,-0.680
2.578,0.040,-0.440,-0.690,-0.680
2.580,0.040,-0.420,-0.670,-0.660
2.582,0.040,-0.370,-0.650,-0.650
2.584,0.050,-0.340,-0.640,-0.650
2.586,0.050,-0.330,-0.630,-0.670
2.588,0.050,-0.330,-0.630,-0.680
2.590,0.060,-0.350,-0.620,-0.680
2.592,0.060,-0.360,-0.610,-0.670
2.594,0.050,-0.330,-0.590,-0.660
2.596,0.060,-0.290,-0.570,-0.640
2.598,0.090,-0.270,-0.570,-0.640
2.600,0.110,-0.250,-0.570,-0.660
2.602,0.120,-0.250,-0.570,-0.670
2.604,0.140,-0.240,-0.580,-0.670
2.606,0.160,-0.250,-0.580,-0.680
2.608,0.180,-0.240,-0.580,-0.680
2.610,0.180,-0.220,-0.570,-0.680
2.612,0.200,-0.210,-0.570,-0.690
2.614,0.220,-0.200,-0.580,-0.700
2.616,0.230,-0.180,-0.570,-0.710
2.618,0.220,-0.160,-0.560,-0.720
2.620,0.230,-0.150,-0.560,-0.730
2.622,0.230,-0.140,-0.560,-0.710
2.624,0.240,-0.130,-0.570,-0.700
2.626,0.260,-0.130,-0.590,-0.720
2.628,0.280,-0.130,-0.610,-0.730
2.630,0.300,-0.130,-0.600,-0.750
2.632,0.320,-0.120,-0.600,-0.760
2.634,0.350,-0.100,-0.580,-0.760
2.636,0.370,-0.080,-0.560,-0.750
2.638,0.380,-0.060,-0.540,-0.740
2.640,0.380,-0.060,-0.530,-0.750
2.642,0.380,-0.070,-0.530,-0.770
2.644,0.380,-0.080,-0.530,-0.780
2.646,0.370,-0.090,-0.520,-0.750
2.648,0.360,-0.090,-0.510,-0.730
2.650,0.340,-0.060,-0.470,-0.710
2.652,0.300,-0.030,-0.440,-0.660
2.654,0.290,-0.030,-0.440,-0.640
2.656,0.280,-0.050,-0.440,-0.630
2.658,0.270,-0.070,-0.440,-0.630
2.660,0.260,-0.100,-0.460,-0.630
2.662,0.260,-0.120,-0.460,-0.620
2.664,0.250,-0.110,-0.460,-0.590
2.666,0.230,-0.090,-0.440,-0.560
2.668,0.220,-0.100,-0.430,-0.540
2.670,0.210,-0.110,-0.420,-0.520
2.672,0.200,-0.140,-0.400,-0.490
2.674,0.170,-0.170,-0.390,-0.480
2.676,0.140,-0.200,-0.370,-0.450
2.678,0.100,-0.190,-0.350,-0.410
2.680,0.060,-0.170,-0.320,-0.360
2.682,0.040,-0.160,-0.290,-0.330
2.684,0.020,-0.160,-0.270,-0.300
2.686,0.000,-0.160,-0.250,-0.270
2.688,-0.020,-0.180,-0.240,-0.230
2.690,-0.050,-0.210,-0.220,-0.190
2.692,-0.090,-0.220,-0.180,-0.140
2.694,-0.130,-0.210,-0.150,-0.090
2.696,-0.150,-0.220,-0.120,-0.050
2.698,-0.170,-0.220,-0.080,-0.020
2.700,-0.180,-0.210,-0.050,0.000
2.702,-0.190,-0.210,-0.020,0.020
2.704,-0.200,-0.210,0.000,0.040
2.706,-0.230,-0.200,0.010,0.090
2.708,-0.260,-0.180,0.030,0.130
2.710,-0.280,-0.180,0.040,0.150
2.712,-0.280,-0.180,0.040,0.170
2.714,-0.280,-0.180,0.060,0.190
2.716,-0.290,-0.170,0.080,0.200
2.718,-0.310,-0.160,0.100,0.210
2.720,-0.320,-0.140,0.110,0.250
2.722,-0.330,-0.130,0.140,0.290
2.724,-0.330,-0.140,0.170,0.300
2.726,-0.340,-0.160,0.180,0.290
2.728,-0.330,-0.160,0.180,0.290
2.730,-0.330,-0.160,0.180,0.310
2.732,-0.330,-0.140,0.190,0.310
2.734,-0.340,-0.110,0.200,0.310
2.736,-0.350,-0.080,0.220,0.340
2.738,-0.330,-0.070,0.210,0.330
2.740,-0.330,-0.080,0.200,0.310
2.742,-0.330,-0.090,0.190,0.280
2.744,-0.330,-0.100,0.180,0.270
2.746,-0.310,-0.100,0.180,0.270
2.748,-0.300,-0.080,0.180,0.290
2.750,-0.310,-0.040,0.190,0.300
2.752,-0.300,-0.010,0.180,0.290
2.754,-0.290,-0.010,0.160,0.290
2.756,-0.270,-0.040,0.140,0.280
2.758,-0.270,-0.070,0.130,0.270
2.760,-0.270,-0.080,0.120,0.260
2.762,-0.270,-0.060,0.130,0.270
2.764,-0.280,-0.020,0.150,0.300
2.766,-0.280,0.000,0.150,0.300
2.768,-0.280,0.000,0.150,0.290
2.770,-0.270,0.000,0.150,0.280
2.772,-0.260,-0.020,0.140,0.270
2.774,-0.250,-0.050,0.130,0.250
2.776,-0.250,-0.040,0.130,0.250
2.778,-0.250,-0.030,0.140,0.260
2.780,-0.250,-0.020,0.140,0.250
2.782,-0.220,-0.010,0.140,0.250
2.784,-0.210,0.000,0.130,0.240
2.786,-0.200,0.000,0.130,0.240
2.788,-0.200,0.000,0.110,0.250
2.790,-0.200,0.000,0.110,0.270
2.792,-0.220,0.000,0.100,0.280
2.794,-0.210,0.000,0.080,0.270
2.796,-0.200,-0.010,0.080,0.250
2.798,-0.180,-0.020,0.080,0.240
2.800,-0.180,-0.020,0.080,0.230
2.802,-0.200,-0.010,0.070,0.230
2.804,-0.210,0.000,0.090,0.260
2.806,-0.230,0.010,0.120,0.290
2.808,-0.230,0.000,0.120,0.280
2.810,-0.190,-0.030,0.100,0.250
2.812,-0.160,-0.050,0.100,0.250
2.814,-0.140,-0.060,0.110,0.250
2.816,-0.140,-0.050,0.110,0.240
2.818,-0.140,-0.040,0.120,0.250
2.820,-0.150,-0.030,0.130,0.290
2.822,-0.150,-0.020,0.150,0.310
2.824,-0.140,-0.040,0.150,0.310
2.826,-0.120,-0.050,0.160,0.290
2.828,-0.110,-0.060,0.140,0.290
2.830,-0.100,-0.060,0.110,0.290
2.832,-0.090,-0.040,0.120,0.300
2.834,-0.110,-0.020,0.130,0.320
2.836,-0.110,-0.010,0.120,0.320
2.838,-0.110,-0.020,0.120,0.310
2.840,-0.100,-0.040,0.120,0.310
2.842,-0.110,-0.050,0.110,0.300
2.844,-0.110,-0.060,0.100,0.300
2.846,-0.100,-0.050,0.110,0.300
2.848,-0.100,-0.020,0.120,0.320
2.850,-0.100,0.000,0.120,0.320
2.852,-0.100,0.000,0.130,0.320
2.854,-0.100,0.000,0.120,0.310
2.856,-0.100,-0.010,0.120,0.300
2.858,-0.090,-0.020,0.120,0.300
2.860,-0.090,-0.020,0.100,0.290
2.862,-0.090,0.000,0.110,0.290
2.864,-0.080,0.000,0.110,0.280
2.866,-0.070,0.000,0.120,0.280
2.868,-0.060,0.010,0.130,0.270
2.870,-0.070,0.010,0.140,0.260
2.872,-0.060,0.000,0.140,0.250
2.874,-0.070,0.000,0.130,0.260
2.876,-0.080,0.000,0.130,0.270
2.878,-0.070,0.000,0.120,0.260
2.880,-0.060,-0.010,0.100,0.260
2.882,-0.060,-0.020,0.090,0.260
2.884,-0.060,-0.010,0.090,0.250
2.886,-0.070,-0.010,0.080,0.260
2.888,-0.070,0.000,0.080,0.270
2.890,-0.080,0.000,0.080,0.280
2.892,-0.080,0.000,0.070,0.280
2.894,-0.070,-0.010,0.060,0.270
2.896,-0.070,-0.020,0.050,0.270
2.898,-0.070,-0.010,0.040,0.270
2.900,-0.070,0.000,0.040,0.270
2.902,-0.070,0.010,0.050,0.280
2.904,-0.080,0.030,0.070,0.290
2.906,-0.070,0.020,0.080,0.290
2.908,-0.070,0.020,0.080,0.260
2.910,-0.070,0.010,0.080,0.240
2.912,-0.060,0.000,0.070,0.230
2.914,-0.050,0.000,0.070,0.240
2.916,-0.070,0.010,0.080,0.240
2.918,-0.090,0.050,0.120,0.270
2.920,-0.080,0.060,0.120,0.260
2.922,-0.070,0.040,0.110,0.240
2.924,-0.060,0.010,0.090,0.220
2.926,-0.060,0.000,0.090,0.200
2.928,-0.060,-0.010,0.090,0.180
2.930,-0.060,0.000,0.080,0.190
2.932,-0.070,0.030,0.080,0.200
2.934,-0.050,0.050,0.090,0.180
2.936,-0.050,0.040,0.090,0.170
2.938,-0.040,0.020,0.070,0.160
2.940,-0.040,-0.010,0.050,0.170
2.942,-0.040,-0.020,0.060,0.170
2.944,-0.030,-0.020,0.070,0.170
2.946,-0.050,0.000,0.070,0.180
2.948,-0.030,0.010,0.050,0.190
2.950,-0.030,0.020,0.030,0.190
2.952,-0.040,0.010,0.020,0.180
2.954,-0.060,0.000,0.020,0.170
2.956,-0.070,0.000,0.010,0.150
2.958,-0.080,0.000,0.000,0.140
2.960,-0.090,0.010,0.030,0.160
2.962,-0.090,0.010,0.040,0.160
2.964,-0.060,0.010,0.030,0.150
2.966,-0.050,0.020,0.030,0.140
2.968,-0.050,0.020,0.030,0.120
2.970,-0.040,0.030,0.030,0.110
2.972,-0.040,0.020,0.040,0.100
2.974,-0.050,0.010,0.050,0.100
2.976,-0.040,0.000,0.040,0.080
2.978,-0.030,-0.010,0.020,0.060
2.980,-0.030,-0.020,0.010,0.060
2.982,-0.020,-0.010,0.010,0.050
2.984,-0.010,0.000,0.010,0.060
2.986,-0.010,0.000,0.010,0.070
2.988,-0.030,0.030,0.010,0.090
2.990,-0.030,0.020,0.000,0.090
2.992,-0.030,0.000,0.000,0.060
2.994,-0.030,-0.020,-0.010,0.040
2.996,-0.010,-0.040,-0.020,0.040
2.998,0.000,-0.050,-0.020,0.040
3.000,-0.010,-0.030,-0.020,0.060
3.002,-0.040,0.010,0.010,0.090
3.004,-0.050,0.020,0.020,0.100
3.006,-0.040,0.000,0.010,0.080
3.008,-0.040,-0.020,-0.010,0.070
3.010,-0.040,-0.040,-0.030,0.050
3.012,-0.040,-0.060,-0.040,0.040
3.014,-0.030,-0.050,-0.040,0.030
3.016,-0.050,0.000,-0.020,0.040
3.018,-0.060,0.010,-0.010,0.040
3.020,-0.060,0.000,0.000,0.040
3.022,-0.050,-0.020,0.000,0.020
3.024,-0.040,-0.040,-0.020,0.000
3.026,-0.040,-0.050,-0.020,0.000
3.028,-0.050,-0.050,-0.030,0.000
3.030,-0.060,-0.030,-0.030,0.030
3.032,-0.060,-0.020,-0.010,0.050
3.034,-0.060,-0.020,0.000,0.050
3.036,-0.060,-0.020,0.000,0.050
3.038,-0.060,-0.030,0.000,0.040
3.040,-0.060,-0.050,0.000,0.020
3.042,-0.070,-0.060,0.000,0.020
3.044,-0.070,-0.050,0.010,0.040
3.046,-0.050,-0.040,0.020,0.050
3.048,-0.040,-0.020,0.030,0.040
3.050,-0.050,-0.020,0.030,0.030
3.052,-0.050,-0.020,0.040,0.030
3.054,-0.060,-0.010,0.040,0.020
3.056,-0.060,-0.010,0.040,0.020
3.058,-0.070,0.000,0.030,0.020
3.060,-0.050,0.000,0.030,0.010
3.062,-0.050,-0.010,0.020,0.010
3.064,-0.040,-0.020,0.020,0.000
3.066,-0.030,-0.010,0.020,0.000
3.068,-0.040,0.000,0.030,0.000
3.070,-0.040,0.000,0.030,0.000
3.072,-0.050,0.000,0.030,0.000
3.074,-0.050,0.000,0.040,0.000
3.076,-0.050,-0.020,0.030,0.000
3.078,-0.040,-0.050,0.010,-0.020
3.080,-0.030,-0.070,0.000,-0.030
3.082,-0.020,-0.070,0.000,-0.040
3.084,-0.020,-0.050,0.000,-0.050
3.086,-0.030,-0.010,0.010,-0.010
3.088,-0.030,0.000,0.030,0.000
3.090,-0.010,-0.010,0.030,-0.040
3.092,0.000,-0.030,0.020,-0.070
3.094,0.020,-0.050,0.000,-0.100
3.096,0.030,-0.050,-0.010,-0.110
3.098,0.040,-0.030,-0.020,-0.110
3.100,0.030,0.000,-0.020,-0.080
3.102,0.030,0.010,-0.010,-0.080
3.104,0.030,0.020,-0.020,-0.090
3.106,0.030,0.020,-0.020,-0.110
3.108,0.020,0.000,-0.030,-0.110
3.110,0.010,-0.010,-0.040,-0.130
3.112,0.020,-0.010,-0.040,-0.130
3.114,0.020,0.000,-0.020,-0.110
3.116,0.010,0.020,-0.010,-0.100
3.118,0.010,0.020,-0.010,-0.100
3.120,0.010,0.010,-0.020,-0.100
3.122,0.010,-0.010,-0.030,-0.110
3.124,0.000,-0.030,-0.060,-0.140
3.126,0.000,-0.050,-0.100,-0.170
3.128,0.020,-0.040,-0.130,-0.200
3.130,0.050,-0.040,-0.180,-0.270
3.132,0.090,-0.060,-0.260,-0.340
3.134,0.100,-0.070,-0.310,-0.380
3.136,0.110,-0.060,-0.300,-0.370
3.138,0.120,-0.040,-0.220,-0.310
3.140,0.110,0.010,-0.050,-0.180
3.142,0.070,0.140,0.190,0.010
3.144,0.090,0.340,0.520,0.210
3.146,0.180,0.620,0.940,0.430
3.148,0.290,0.970,1.420,0.690
3.150,0.400,1.360,1.950,0.960
3.152,0.490,1.760,2.500,1.280
3.154,0.570,2.150,3.050,1.620
3.156,0.640,2.560,3.600,1.950
3.158,0.700,2.920,4.080,2.230
3.160,0.760,3.200,4.430,2.420
3.162,0.810,3.370,4.600,2.520
3.164,0.810,3.430,4.620,2.540
3.166,0.770,3.340,4.460,2.460
3.168,0.630,3.040,4.070,2.300
3.170,0.380,2.540,3.510,2.090
3.172,0.120,1.970,2.870,1.830
3.174,-0.070,1.430,2.260,1.540
3.176,-0.180,0.990,1.730,1.250
3.178,-0.230,0.640,1.270,0.970
3.180,-0.260,0.380,0.880,0.730
3.182,-0.260,0.170,0.550,0.510
3.184,-0.280,0.030,0.280,0.340
3.186,-0.280,-0.080,0.040,0.180
3.188,-0.240,-0.200,-0.150,0.020
3.190,-0.200,-0.310,-0.340,-0.120
3.192,-0.170,-0.410,-0.500,-0.250
3.194,-0.150,-0.470,-0.640,-0.360
3.196,-0.130,-0.520,-0.740,-0.420
3.198,-0.120,-0.530,-0.820,-0.460
3.200,-0.120,-0.540,-0.880,-0.510
3.202,-0.110,-0.560,-0.920,-0.550
3.204,-0.090,-0.570,-0.960,-0.590
3.206,-0.070,-0.600,-0.980,-0.620
3.208,-0.050,-0.630,-1.010,-0.650
3.210,-0.030,-0.650,-1.030,-0.670
3.212,-0.030,-0.630,-1.030,-0.660
3.214,-0.040,-0.610,-1.010,-0.650
3.216,-0.030,-0.610,-1.000,-0.660
3.218,-0.010,-0.600,-0.980,-0.670
3.220,-0.010,-0.600,-0.970,-0.680
3.222,-0.010,-0.620,-0.950,-0.700
3.224,-0.010,-0.630,-0.940,-0.720
3.226,-0.030,-0.610,-0.890,-0.700
3.228,-0.050,-0.590,-0.870,-0.680
3.230,-0.040,-0.590,-0.860,-0.690
3.232,-0.020,-0.570,-0.850,-0.710
3.234,-0.010,-0.560,-0.840,-0.730
3.236,-0.010,-0.550,-0.830,-0.730
3.238,-0.010,-0.540,-0.820,-0.730
3.240,-0.020,-0.520,-0.810,-0.730
3.242,-0.030,-0.510,-0.810,-0.730
3.244,-0.020,-0.510,-0.810,-0.750
3.246,0.000,-0.510,-0.810,-0.750
3.248,0.010,-0.490,-0.790,-0.760
3.250,0.030,-0.480,-0.780,-0.760
3.252,0.030,-0.460,-0.770,-0.760
3.254,0.010,-0.440,-0.760,-0.740
3.256,0.000,-0.430,-0.740,-0.740
3.258,0.000,-0.440,-0.750,-0.750
3.260,0.000,-0.450,-0.750,-0.760
3.262,0.000,-0.450,-0.750,-0.770
3.264,0.010,-0.450,-0.730,-0.760
3.266,0.020,-0.430,-0.720,-0.760
3.268,0.000,-0.390,-0.680,-0.730
3.270,-0.010,-0.350,-0.660,-0.710
3.272,0.000,-0.340,-0.650,-0.710
3.274,0.020,-0.350,-0.660,-0.730
3.276,0.020,-0.360,-0.660,-0.750
3.278,0.020,-0.370,-0.660,-0.770
3.280,0.020,-0.360,-0.660,-0.770
3.282,0.020,-0.310,-0.650,-0.750
3.284,0.010,-0.270,-0.640,-0.750
3.286,0.020,-0.260,-0.630,-0.750
3.288,0.030,-0.260,-0.630,-0.740
3.290,0.040,-0.280,-0.620,-0.740
3.292,0.030,-0.310,-0.630,-0.760
3.294,0.030,-0.320,-0.630,-0.770
3.296,0.020,-0.290,-0.600,-0.740
3.298,0.020,-0.250,-0.580,-0.720
3.300,0.030,-0.230,-0.570,-0.720
3.302,0.040,-0.240,-0.570,-0.720
3.304,0.060,-0.240,-0.560,-0.720
3.306,0.070,-0.250,-0.550,-0.730
3.308,0.070,-0.260,-0.560,-0.730
3.310,0.050,-0.240,-0.550,-0.700
3.312,0.050,-0.220,-0.530,-0.690
3.314,0.060,-0.210,-0.520,-0.700
3.316,0.070,-0.210,-0.520,-0.710
3.318,0.070,-0.210,-0.510,-0.700
3.320,0.070,-0.210,-0.510,-0.700
3.322,0.090,-0.200,-0.530,-0.690
3.324,0.090,-0.180,-0.540,-0.710
3.326,0.100,-0.170,-0.550,-0.730
3.328,0.110,-0.180,-0.560,-0.750
3.330,0.130,-0.170,-0.550,-0.750
3.332,0.160,-0.150,-0.540,-0.750
3.334,0.160,-0.120,-0.540,-0.740
3.336,0.150,-0.100,-0.540,-0.730
3.338,0.130,-0.080,-0.510,-0.710
3.340,0.140,-0.070,-0.490,-0.700
3.342,0.150,-0.080,-0.490,-0.730
3.344,0.180,-0.090,-0.500,-0.750
3.346,0.200,-0.100,-0.510,-0.760
3.348,0.210,-0.090,-0.510,-0.770
3.350,0.200,-0.070,-0.500,-0.770
3.352,0.180,-0.060,-0.470,-0.740
3.354,0.170,-0.040,-0.460,-0.710
3.356,0.170,-0.060,-0.460,-0.700
3.358,0.170,-0.080,-0.470,-0.700
3.360,0.160,-0.100,-0.470,-0.720
3.362,0.160,-0.120,-0.470,-0.720
3.364,0.160,-0.130,-0.480,-0.700
3.366,0.140,-0.110,-0.480,-0.660
3.368,0.130,-0.080,-0.470,-0.640
3.370,0.130,-0.090,-0.460,-0.630
3.372,0.120,-0.120,-0.450,-0.610
3.374,0.110,-0.160,-0.450,-0.600
3.376,0.070,-0.190,-0.430,-0.590
3.378,0.050,-0.210,-0.420,-0.580
3.380,0.020,-0.200,-0.400,-0.520
3.382,0.000,-0.170,-0.370,-0.480
3.384,-0.030,-0.170,-0.350,-0.460
3.386,-0.060,-0.180,-0.330,-0.430
3.388,-0.090,-0.200,-0.310,-0.380
3.390,-0.130,-0.220,-0.300,-0.340
3.392,-0.160,-0.240,-0.280,-0.310
3.394,-0.190,-0.250,-0.250,-0.250
3.396,-0.230,-0.230,-0.220,-0.200
3.398,-0.240,-0.230,-0.190,-0.160
3.400,-0.270,-0.230,-0.150,-0.110
3.402,-0.290,-0.220,-0.120,-0.070
3.404,-0.310,-0.220,-0.100,-0.030
3.406,-0.340,-0.230,-0.060,0.000
3.408,-0.380,-0.220,-0.030,0.030
3.410,-0.420,-0.200,-0.010,0.060
3.412,-0.430,-0.220,0.000,0.070
3.414,-0.450,-0.220,0.020,0.090
3.416,-0.470,-0.210,0.030,0.120
3.418,-0.470,-0.200,0.040,0.130
3.420,-0.470,-0.190,0.040,0.140
3.422,-0.470,-0.190,0.050,0.160
3.424,-0.480,-0.190,0.050,0.180
3.426,-0.480,-0.210,0.050,0.170
3.428,-0.480,-0.210,0.050,0.170
3.430,-0.480,-0.220,0.050,0.180
3.432,-0.480,-0.220,0.070,0.180
3.434,-0.500,-0.210,0.080,0.180
3.436,-0.520,-0.190,0.090,0.200
3.438,-0.520,-0.170,0.100,0.220
3.440,-0.510,-0.180,0.090,0.220
3.442,-0.490,-0.210,0.080,0.200
3.444,-0.470,-0.230,0.080,0.190
3.446,-0.470,-0.240,0.070,0.190
3.448,-0.460,-0.230,0.070,0.200
3.450,-0.460,-0.190,0.080,0.200
3.452,-0.480,-0.160,0.080,0.220
3.454,-0.470,-0.150,0.070,0.220
3.456,-0.450,-0.170,0.050,0.210
3.458,-0.450,-0.180,0.040,0.190
3.460,-0.440,-0.180,0.040,0.180
3.462,-0.430,-0.190,0.020,0.170
3.464,-0.420,-0.170,0.030,0.180
3.466,-0.420,-0.130,0.050,0.200
3.468,-0.410,-0.120,0.060,0.200
3.470,-0.400,-0.120,0.070,0.200
3.472,-0.380,-0.140,0.060,0.210
3.474,-0.370,-0.160,0.060,0.210
3.476,-0.360,-0.180,0.050,0.190
3.478,-0.360,-0.170,0.060,0.200
3.480,-0.370,-0.140,0.070,0.230
3.482,-0.360,-0.130,0.070,0.230
3.484,-0.350,-0.110,0.070,0.220
3.486,-0.330,-0.110,0.060,0.220
3.488,-0.320,-0.110,0.060,0.230
3.490,-0.310,-0.120,0.050,0.230
3.492,-0.320,-0.110,0.040,0.240
3.494,-0.330,-0.080,0.040,0.260
3.496,-0.320,-0.070,0.040,0.250
3.498,-0.300,-0.070,0.040,0.230
3.500,-0.280,-0.060,0.050,0.220
3.502,-0.270,-0.070,0.060,0.220
3.504,-0.270,-0.070,0.070,0.240
3.506,-0.270,-0.070,0.070,0.260
3.508,-0.260,-0.060,0.070,0.270
3.510,-0.240,-0.070,0.060,0.260
3.512,-0.240,-0.090,0.050,0.240
3.514,-0.220,-0.090,0.050,0.240
3.516,-0.210,-0.080,0.070,0.240
3.518,-0.200,-0.050,0.090,0.240
3.520,-0.200,-0.030,0.100,0.270
3.522,-0.200,-0.010,0.130,0.320
3.524,-0.190,-0.010,0.120,0.310
3.526,-0.180,-0.030,0.110,0.290
3.528,-0.170,-0.040,0.100,0.280
3.530,-0.160,-0.040,0.090,0.260
3.532,-0.150,-0.030,0.100,0.240
3.534,-0.160,0.000,0.110,0.260
3.536,-0.170,0.040,0.130,0.280
3.538,-0.150,0.050,0.120,0.280
3.540,-0.130,0.020,0.100,0.280
3.542,-0.120,0.000,0.100,0.280
3.544,-0.110,0.000,0.100,0.270
3.546,-0.100,-0.010,0.100,0.280
3.548,-0.080,0.000,0.100,0.300
3.550,-0.090,0.020,0.110,0.300
3.552,-0.080,0.020,0.120,0.300
3.554,-0.080,0.020,0.120,0.290
3.556,-0.070,0.010,0.120,0.290
3.558,-0.070,0.000,0.110,0.290
3.560,-0.060,-0.010,0.100,0.290
3.562,-0.060,-0.010,0.110,0.300
3.564,-0.070,0.000,0.110,0.320
3.566,-0.060,0.010,0.110,0.330
3.568,-0.050,0.020,0.100,0.330
3.570,-0.030,0.030,0.110,0.330
3.572,0.000,0.030,0.100,0.330
3.574,0.000,0.010,0.080,0.320
3.576,-0.030,0.000,0.080,0.310
3.578,-0.060,0.000,0.080,0.320
3.580,-0.070,0.000,0.090,0.320
3.582,-0.060,0.010,0.090,0.310
3.584,-0.050,0.030,0.100,0.310
3.586,-0.040,0.030,0.100,0.300
3.588,-0.020,0.030,0.100,0.290
3.590,-0.010,0.020,0.090,0.280
3.592,-0.020,0.020,0.090,0.280
3.594,-0.020,0.020,0.090,0.270
3.596,0.000,0.020,0.080,0.270
3.598,0.010,0.030,0.080,0.270
3.600,0.020,0.040,0.090,0.270
3.602,0.020,0.030,0.090,0.280
3.604,0.010,0.030,0.100,0.310
3.606,0.000,0.040,0.100,0.320
3.608,0.020,0.020,0.070,0.310
3.610,0.010,0.000,0.040,0.290
3.612,0.000,0.000,0.030,0.280
3.614,0.010,-0.010,0.030,0.280
3.616,0.020,0.000,0.040,0.290
3.618,0.010,0.010,0.050,0.290
3.620,0.000,0.050,0.060,0.320
3.622,0.000,0.040,0.060,0.330
3.624,0.000,0.020,0.050,0.310
3.626,0.000,0.000,0.030,0.280
3.628,0.000,0.000,0.020,0.260
3.630,0.000,-0.010,0.010,0.250
3.632,0.000,0.000,0.010,0.260
3.634,0.000,0.020,0.020,0.280
3.636,0.000,0.030,0.010,0.280
3.638,0.000,0.010,0.010,0.270
3.640,0.000,0.000,0.000,0.250
3.642,0.000,-0.020,0.000,0.230
3.644,0.020,-0.030,-0.010,0.210
3.646,0.020,-0.040,-0.010,0.210
3.648,0.010,-0.010,-0.010,0.220
3.650,0.000,0.000,-0.010,0.220
3.652,0.000,0.010,-0.010,0.210
3.654,0.000,0.000,-0.010,0.200
3.656,0.010,-0.010,-0.010,0.190
3.658,0.010,-0.020,-0.020,0.180
3.660,0.000,-0.010,-0.020,0.180
3.662,-0.010,0.010,-0.010,0.200
3.664,-0.020,0.020,0.000,0.200
3.666,-0.010,0.020,-0.010,0.180
3.668,0.000,0.030,-0.020,0.180
3.670,0.000,0.030,-0.030,0.170
3.672,0.010,0.020,-0.030,0.170
3.674,0.000,0.010,-0.030,0.160
3.676,-0.010,0.030,-0.020,0.160
3.678,-0.010,0.030,-0.020,0.150
3.680,0.000,0.030,-0.010,0.150
3.682,0.000,0.030,-0.010,0.150
3.684,0.000,0.030,-0.010,0.150
3.686,-0.010,0.030,0.000,0.160
3.688,-0.010,0.020,0.000,0.180
3.690,-0.010,0.030,0.010,0.200
3.692,-0.010,0.020,0.000,0.190
3.694,0.000,0.000,0.000,0.170
3.696,0.000,-0.010,0.000,0.170
3.698,0.010,-0.010,0.000,0.180
3.700,0.010,0.000,0.000,0.170
3.702,0.000,0.010,0.010,0.170
3.704,-0.010,0.040,0.020,0.200
3.706,-0.010,0.040,0.010,0.200
3.708,0.000,0.020,0.000,0.190
3.710,0.000,0.000,-0.010,0.170
3.712,0.000,-0.020,-0.020,0.160
3.714,0.010,-0.030,-0.040,0.140
3.716,0.010,-0.010,-0.040,0.140
3.718,0.000,0.020,-0.010,0.150
3.720,0.000,0.040,0.000,0.160
3.722,0.000,0.020,0.000,0.160
3.724,0.010,0.000,-0.010,0.160
3.726,0.000,-0.010,-0.030,0.140
3.728,0.000,-0.030,-0.030,0.130
3.730,0.000,-0.030,-0.020,0.150
3.732,0.000,0.000,0.000,0.190
3.734,-0.010,0.010,0.000,0.200
3.736,-0.010,0.020,-0.020,0.200
3.738,0.000,0.010,-0.040,0.200
3.740,0.010,0.000,-0.060,0.180
3.742,0.020,-0.020,-0.060,0.150
3.744,0.020,-0.020,-0.060,0.150
3.746,0.000,0.000,-0.050,0.170
3.748,0.000,0.010,-0.040,0.160
3.750,0.000,0.020,-0.020,0.140
3.752,0.000,0.030,-0.010,0.140
3.754,0.000,0.030,0.000,0.140
3.756,0.010,0.010,0.000,0.130
3.758,0.010,0.000,-0.010,0.130
3.760,0.000,0.010,0.000,0.150
3.762,0.000,0.020,0.000,0.150
3.764,0.020,0.020,-0.010,0.120
3.766,0.030,0.020,-0.020,0.110
3.768,0.030,0.030,-0.030,0.100
3.770,0.030,0.040,-0.020,0.100
3.772,0.030,0.050,-0.020,0.100
3.774,0.020,0.070,-0.010,0.110
3.776,0.020,0.090,-0.010,0.090
3.778,0.030,0.080,-0.020,0.060
3.780,0.050,0.080,-0.010,0.050
3.782,0.060,0.080,0.000,0.040
3.784,0.060,0.080,0.000,0.030
3.786,0.060,0.080,0.000,0.030
3.788,0.050,0.100,-0.010,0.040
3.790,0.050,0.100,-0.020,0.040
3.792,0.050,0.080,-0.020,0.030
3.794,0.050,0.050,-0.030,0.020
3.796,0.060,0.040,-0.030,0.020
3.798,0.080,0.030,-0.020,0.020
3.800,0.070,0.040,-0.010,0.020
3.802,0.050,0.080,0.020,0.050
3.804,0.050,0.100,0.030,0.060
3.806,0.060,0.090,0.020,0.040
3.808,0.070,0.060,-0.010,0.000
3.810,0.080,0.030,-0.050,-0.050
3.812,0.110,0.000,-0.110,-0.100
3.814,0.150,0.000,-0.160,-0.150
3.816,0.160,0.000,-0.220,-0.190
3.818,0.170,0.000,-0.260,-0.220
3.820,0.180,0.000,-0.260,-0.220
3.822,0.190,0.010,-0.190,-0.170
3.824,0.190,0.070,0.000,-0.040
3.826,0.170,0.190,0.260,0.140
3.828,0.180,0.400,0.590,0.340
3.830,0.250,0.700,1.000,0.560
3.832,0.350,1.050,1.460,0.810
3.834,0.440,1.400,1.960,1.080
3.836,0.520,1.760,2.480,1.370
3.838,0.590,2.120,2.980,1.670
3.840,0.640,2.470,3.480,1.980
3.842,0.660,2.790,3.930,2.240
3.844,0.670,3.060,4.260,2.450
3.846,0.670,3.230,4.430,2.560
3.848,0.660,3.280,4.460,2.570
3.850,0.610,3.200,4.310,2.490
3.852,0.480,2.920,3.960,2.330
3.854,0.270,2.460,3.430,2.110
3.856,0.040,1.910,2.810,1.840
3.858,-0.140,1.430,2.210,1.570
3.860,-0.250,1.020,1.690,1.290
3.862,-0.300,0.700,1.250,1.020
3.864,-0.320,0.450,0.890,0.780
3.866,-0.330,0.240,0.570,0.580
3.868,-0.330,0.060,0.300,0.390
3.870,-0.320,-0.070,0.060,0.240
3.872,-0.320,-0.180,-0.130,0.120
3.874,-0.320,-0.280,-0.300,0.000
3.876,-0.310,-0.390,-0.430,-0.120
3.878,-0.300,-0.450,-0.560,-0.220
3.880,-0.280,-0.500,-0.660,-0.290
3.882,-0.250,-0.530,-0.730,-0.340
3.884,-0.240,-0.540,-0.780,-0.390
3.886,-0.230,-0.540,-0.820,-0.420
3.888,-0.220,-0.550,-0.860,-0.450
3.890,-0.200,-0.590,-0.900,-0.490
3.892,-0.200,-0.610,-0.930,-0.510
3.894,-0.200,-0.630,-0.950,-0.540
3.896,-0.200,-0.640,-0.970,-0.550
3.898,-0.180,-0.630,-0.960,-0.550
3.900,-0.170,-0.590,-0.950,-0.540
3.902,-0.160,-0.560,-0.940,-0.540
3.904,-0.150,-0.550,-0.940,-0.550
3.906,-0.140,-0.560,-0.930,-0.570
3.908,-0.130,-0.570,-0.920,-0.590
3.910,-0.110,-0.570,-0.920,-0.590
3.912,-0.090,-0.570,-0.910,-0.600
3.914,-0.100,-0.530,-0.880,-0.590
3.916,-0.110,-0.490,-0.850,-0.570
3.918,-0.100,-0.470,-0.840,-0.570
3.920,-0.090,-0.460,-0.830,-0.580
3.922,-0.080,-0.460,-0.830,-0.600
3.924,-0.080,-0.470,-0.830,-0.610
3.926,-0.080,-0.480,-0.820,-0.610
3.928,-0.080,-0.470,-0.790,-0.590
3.930,-0.090,-0.450,-0.750,-0.580
3.932,-0.080,-0.440,-0.730,-0.580
3.934,-0.070,-0.420,-0.730,-0.580
3.936,-0.070,-0.410,-0.730,-0.590
3.938,-0.060,-0.410,-0.730,-0.590
3.940,-0.060,-0.410,-0.730,-0.590
3.942,-0.080,-0.390,-0.710,-0.570
3.944,-0.090,-0.370,-0.700,-0.550
3.946,-0.090,-0.370,-0.700,-0.570
3.948,-0.080,-0.370,-0.700,-0.570
3.950,-0.080,-0.370,-0.680,-0.570
3.952,-0.090,-0.360,-0.670,-0.570
3.954,-0.100,-0.350,-0.660,-0.560
3.956,-0.120,-0.320,-0.630,-0.520
3.958,-0.140,-0.280,-0.600,-0.500
3.960,-0.130,-0.300,-0.610,-0.520
3.962,-0.110,-0.310,-0.610,-0.520
3.964,-0.090,-0.310,-0.610,-0.520
3.966,-0.080,-0.300,-0.600,-0.530
3.968,-0.070,-0.300,-0.590,-0.550
3.970,-0.070,-0.260,-0.560,-0.530
3.972,-0.090,-0.240,-0.540,-0.520
3.974,-0.080,-0.250,-0.550,-0.530
3.976,-0.080,-0.260,-0.560,-0.550
3.978,-0.080,-0.280,-0.570,-0.560
3.980,-0.070,-0.280,-0.570,-0.570
3.982,-0.050,-0.260,-0.570,-0.570
3.984,-0.040,-0.220,-0.560,-0.570
3.986,-0.040,-0.200,-0.540,-0.580
3.988,-0.020,-0.190,-0.530,-0.590
3.990,-0.020,-0.190,-0.520,-0.600
3.992,0.000,-0.210,-0.530,-0.610
3.994,0.000,-0.220,-0.540,-0.620
3.996,0.000,-0.230,-0.550,-0.620
3.998,0.000,-0.210,-0.530,-0.610
4.000,0.000,-0.160,-0.510,-0.600
4.002,0.020,-0.150,-0.510,-0.610
4.004,0.040,-0.140,-0.510,-0.620
4.006,0.060,-0.150,-0.510,-0.640
4.008,0.070,-0.160,-0.520,-0.660
4.010,0.080,-0.170,-0.530,-0.680
4.012,0.080,-0.150,-0.520,-0.680
4.014,0.080,-0.110,-0.490,-0.660
4.016,0.110,-0.090,-0.470,-0.660
4.018,0.130,-0.070,-0.470,-0.680
4.020,0.140,-0.070,-0.480,-0.680
4.022,0.170,-0.090,-0.480,-0.680
4.024,0.190,-0.100,-0.480,-0.690
4.026,0.170,-0.110,-0.470,-0.690
4.028,0.170,-0.110,-0.460,-0.680
4.030,0.190,-0.110,-0.450,-0.680
4.032,0.210,-0.090,-0.440,-0.680
4.034,0.220,-0.080,-0.440,-0.680
4.036,0.220,-0.070,-0.420,-0.680
4.038,0.240,-0.070,-0.410,-0.660
4.040,0.240,-0.050,-0.380,-0.630
4.042,0.220,-0.030,-0.360,-0.610
4.044,0.220,-0.050,-0.360,-0.610
4.046,0.230,-0.060,-0.370,-0.600
4.048,0.240,-0.060,-0.390,-0.590
4.050,0.230,-0.060,-0.400,-0.600
4.052,0.220,-0.070,-0.390,-0.580
4.054,0.200,-0.060,-0.390,-0.560
4.056,0.180,-0.070,-0.400,-0.540
4.058,0.180,-0.080,-0.400,-0.540
4.060,0.170,-0.100,-0.390,-0.530
4.062,0.170,-0.120,-0.390,-0.500
4.064,0.170,-0.130,-0.370,-0.480
4.066,0.150,-0.130,-0.350,-0.470
4.068,0.120,-0.120,-0.320,-0.430
4.070,0.110,-0.110,-0.300,-0.380
4.072,0.090,-0.130,-0.270,-0.350
4.074,0.080,-0.150,-0.250,-0.340
4.076,0.070,-0.170,-0.240,-0.320
4.078,0.040,-0.170,-0.210,-0.270
4.080,0.010,-0.170,-0.190,-0.230
4.082,-0.010,-0.160,-0.160,-0.180
4.084,-0.030,-0.130,-0.130,-0.150
4.086,-0.050,-0.110,-0.100,-0.110
4.088,-0.080,-0.110,-0.080,-0.090
4.090,-0.100,-0.130,-0.060,-0.070
4.092,-0.120,-0.140,-0.050,-0.050
4.094,-0.130,-0.140,-0.040,-0.020
4.096,-0.150,-0.130,-0.010,0.020
4.098,-0.170,-0.100,0.020,0.060
4.100,-0.170,-0.090,0.040,0.080
4.102,-0.170,-0.080,0.060,0.110
4.104,-0.170,-0.110,0.070,0.120
4.106,-0.170,-0.140,0.080,0.120
4.108,-0.180,-0.160,0.080,0.120
4.110,-0.210,-0.160,0.100,0.140
4.112,-0.220,-0.140,0.100,0.160
4.114,-0.210,-0.140,0.100,0.170
4.116,-0.200,-0.140,0.110,0.190
4.118,-0.210,-0.130,0.120,0.210
4.120,-0.210,-0.130,0.130,0.220
4.122,-0.220,-0.140,0.130,0.230
4.124,-0.240,-0.130,0.140,0.240
4.126,-0.250,-0.110,0.150,0.250
4.128,-0.240,-0.100,0.150,0.250
4.130,-0.220,-0.100,0.130,0.250
4.132,-0.220,-0.100,0.120,0.250
4.134,-0.230,-0.090,0.130,0.260
4.136,-0.220,-0.080,0.130,0.260
4.138,-0.220,-0.070,0.120,0.290
4.140,-0.240,-0.050,0.130,0.300
4.142,-0.250,-0.060,0.130,0.270
4.144,-0.240,-0.070,0.110,0.250
4.146,-0.230,-0.080,0.090,0.240
4.148,-0.210,-0.080,0.080,0.240
4.150,-0.200,-0.070,0.080,0.230
4.152,-0.200,-0.040,0.080,0.250
4.154,-0.200,-0.020,0.100,0.260
4.156,-0.180,-0.030,0.100,0.250
4.158,-0.180,-0.040,0.090,0.240
4.160,-0.180,-0.050,0.080,0.230
4.162,-0.160,-0.050,0.070,0.230
4.164,-0.160,-0.050,0.070,0.230
4.166,-0.160,-0.040,0.100,0.220
4.168,-0.170,-0.010,0.120,0.240
4.170,-0.160,0.000,0.120,0.240
4.172,-0.140,0.000,0.100,0.240
4.174,-0.130,-0.020,0.080,0.220
4.176,-0.120,-0.050,0.080,0.200
4.178,-0.110,-0.060,0.070,0.200
4.180,-0.100,-0.040,0.080,0.220
4.182,-0.100,0.000,0.100,0.240
4.184,-0.090,0.010,0.100,0.240
4.186,-0.080,0.020,0.100,0.230
4.188,-0.070,0.000,0.100,0.230
4.190,-0.070,-0.020,0.090,0.240
4.192,-0.070,-0.050,0.080,0.230
4.194,-0.070,-0.040,0.070,0.230
4.196,-0.070,-0.030,0.080,0.250
4.198,-0.060,-0.020,0.080,0.250
4.200,-0.050,0.000,0.080,0.250
4.202,-0.050,0.010,0.090,0.250
4.204,-0.030,0.000,0.090,0.240
4.206,-0.020,-0.020,0.090,0.230
4.208,-0.040,-0.020,0.090,0.240
4.210,-0.040,0.000,0.100,0.250
4.212,-0.040,0.000,0.090,0.250
4.214,-0.030,0.000,0.080,0.240
4.216,-0.040,0.010,0.090,0.230
4.218,-0.040,0.020,0.090,0.240
4.220,-0.030,0.010,0.090,0.240
4.222,-0.020,0.010,0.080,0.260
4.224,-0.030,0.020,0.100,0.280
4.226,-0.020,0.010,0.100,0.270
4.228,0.000,0.000,0.090,0.250
4.230,0.010,0.000,0.090,0.230
4.232,0.040,0.000,0.080,0.220
4.234,0.040,0.000,0.080,0.210
4.236,0.040,0.000,0.080,0.200
4.238,0.030,0.020,0.070,0.210
4.240,0.040,0.020,0.050,0.200
4.242,0.050,0.000,0.040,0.190
4.244,0.070,0.000,0.020,0.190
4.246,0.100,0.000,0.020,0.190
4.248,0.110,0.000,0.020,0.200
4.250,0.100,0.010,0.030,0.200
4.252,0.080,0.050,0.040,0.210
4.254,0.080,0.050,0.030,0.210
4.256,0.080,0.040,0.030,0.200
4.258,0.080,0.020,0.020,0.190
4.260,0.090,0.000,0.010,0.180
4.262,0.110,0.000,0.010,0.170
4.264,0.100,0.000,0.020,0.190
4.266,0.080,0.050,0.050,0.230
4.268,0.080,0.060,0.040,0.230
4.270,0.080,0.050,0.040,0.230
4.272,0.090,0.030,0.030,0.240
4.274,0.080,0.010,0.040,0.240
4.276,0.080,0.000,0.040,0.220
4.278,0.090,0.000,0.020,0.210
4.280,0.090,0.010,0.020,0.220
4.282,0.090,0.030,0.010,0.220
4.284,0.100,0.050,0.010,0.210
4.286,0.110,0.050,0.010,0.200
4.288,0.120,0.020,0.010,0.200
4.290,0.130,-0.010,0.010,0.210
4.292,0.110,-0.010,0.010,0.200
4.294,0.100,0.000,0.020,0.200
4.296,0.110,0.000,0.020,0.200
4.298,0.120,0.000,0.020,0.200
4.300,0.120,0.000,0.030,0.190
4.302,0.120,0.000,0.030,0.200
4.304,0.120,-0.010,0.020,0.200
4.306,0.110,-0.010,0.020,0.210
4.308,0.090,0.000,0.040,0.230
4.310,0.090,0.000,0.040,0.220
4.312,0.100,-0.010,0.020,0.200
4.314,0.110,-0.010,0.010,0.190
4.316,0.120,-0.010,0.020,0.170
4.318,0.120,-0.020,0.020,0.170
4.320,0.120,-0.010,0.000,0.190
4.322,0.110,0.000,0.000,0.210
4.324,0.110,0.000,0.000,0.210
4.326,0.110,0.000,0.000,0.190
4.328,0.100,0.000,-0.010,0.170
4.330,0.110,-0.010,0.000,0.160
4.332,0.120,-0.010,0.000,0.150
4.334,0.110,0.000,0.000,0.150
4.336,0.110,0.030,0.010,0.150
4.338,0.120,0.020,0.020,0.150
4.340,0.120,0.000,0.030,0.140
4.342,0.110,0.000,0.030,0.120
4.344,0.110,-0.020,0.020,0.100
4.346,0.130,-0.030,0.010,0.100
4.348,0.130,-0.010,0.010,0.120
4.350,0.090,0.050,0.050,0.160
4.352,0.080,0.060,0.060,0.170
4.354,0.080,0.040,0.050,0.160
4.356,0.100,0.000,0.040,0.150
4.358,0.100,-0.010,0.020,0.140
4.360,0.090,-0.030,0.000,0.130
4.362,0.070,-0.040,0.000,0.150
4.364,0.050,-0.010,0.010,0.200
4.366,0.040,0.000,0.020,0.210
4.368,0.040,0.000,0.020,0.200
4.370,0.040,-0.010,0.010,0.190
4.372,0.040,-0.030,0.000,0.190
4.374,0.040,-0.050,-0.010,0.180
4.376,0.030,-0.060,-0.030,0.170
4.378,0.020,-0.060,-0.040,0.180
4.380,0.020,-0.070,-0.030,0.180
4.382,0.030,-0.080,-0.040,0.160
4.384,0.040,-0.090,-0.040,0.160
4.386,0.040,-0.090,-0.040,0.160
4.388,0.040,-0.100,-0.050,0.170
4.390,0.020,-0.110,-0.040,0.180
4.392,-0.010,-0.100,-0.020,0.190
4.394,-0.010,-0.090,0.000,0.190
4.396,0.000,-0.090,-0.010,0.190
4.398,0.000,-0.080,-0.020,0.180
4.400,0.020,-0.060,-0.010,0.180
4.402,0.020,-0.050,0.000,0.190
4.404,0.020,-0.040,0.000,0.210
4.406,0.010,-0.010,0.010,0.240
4.408,0.010,-0.020,0.010,0.240
4.410,0.020,-0.030,0.000,0.210
4.412,0.020,-0.040,0.000,0.200
4.414,0.030,-0.030,0.000,0.180
4.416,0.050,-0.010,0.000,0.160
4.418,0.050,-0.010,0.000,0.160
4.420,0.050,0.000,0.010,0.170
4.422,0.060,0.000,0.030,0.160
4.424,0.070,-0.010,0.030,0.140
4.426,0.090,-0.030,0.020,0.120
4.428,0.110,-0.050,0.000,0.110
4.430,0.120,-0.060,0.000,0.100
4.432,0.130,-0.060,0.000,0.100
4.434,0.110,-0.030,0.010,0.110
4.436,0.100,-0.010,0.010,0.110
4.438,0.110,-0.020,0.000,0.100
4.440,0.110,-0.030,-0.010,0.080
4.442,0.120,-0.030,-0.030,0.060
4.444,0.130,-0.030,-0.040,0.040
4.446,0.140,-0.030,-0.030,0.040
4.448,0.140,0.000,-0.010,0.060
4.450,0.140,0.020,-0.010,0.060
4.452,0.140,0.030,0.000,0.050
4.454,0.150,0.030,0.000,0.050
4.456,0.150,0.000,0.000,0.050
4.458,0.140,-0.010,0.000,0.050
4.460,0.130,-0.020,0.000,0.050
4.462,0.120,-0.010,0.000,0.060
4.464,0.110,0.000,0.000,0.060
4.466,0.120,0.000,-0.010,0.050
4.468,0.110,0.000,-0.010,0.040
4.470,0.110,0.000,-0.010,0.040
4.472,0.110,0.000,0.000,0.060
4.474,0.100,0.000,0.000,0.070
4.476,0.090,0.010,0.000,0.070
4.478,0.080,0.020,0.000,0.070
4.480,0.090,0.010,-0.030,0.050
4.482,0.120,0.010,-0.070,0.000
4.484,0.130,0.000,-0.110,-0.030
4.486,0.150,-0.010,-0.150,-0.100
4.488,0.170,-0.030,-0.220,-0.140
4.490,0.180,-0.040,-0.280,-0.170
4.492,0.190,-0.040,-0.280,-0.180
4.494,0.210,-0.020,-0.210,-0.150
4.496,0.240,0.050,-0.030,-0.030
4.498,0.240,0.190,0.230,0.150
4.500,0.240,0.380,0.570,0.370
4.502,0.280,0.640,0.990,0.610
4.504,0.370,0.980,1.460,0.870
4.506,0.470,1.340,1.960,1.140
4.508,0.580,1.690,2.490,1.410
4.510,0.670,2.060,3.020,1.710
4.512,0.760,2.460,3.550,2.020
4.514,0.830,2.850,4.060,2.320
4.516,0.890,3.200,4.500,2.560
4.518,0.920,3.470,4.820,2.760
4.520,0.920,3.610,4.960,2.860
4.522,0.890,3.610,4.940,2.870
4.524,0.820,3.460,4.730,2.800
4.526,0.690,3.120,4.320,2.610
4.528,0.480,2.600,3.710,2.340
4.530,0.260,2.030,3.020,2.020
4.532,0.100,1.530,2.350,1.700
4.534,0.000,1.120,1.780,1.380
4.536,-0.040,0.770,1.290,1.060
4.538,-0.050,0.470,0.860,0.780
4.540,-0.050,0.230,0.510,0.540
4.542,-0.050,0.020,0.210,0.320
4.544,-0.060,-0.130,-0.040,0.130
4.546,-0.060,-0.260,-0.240,-0.010
4.548,-0.060,-0.350,-0.410,-0.140
4.550,-0.040,-0.420,-0.550,-0.250
4.552,-0.040,-0.470,-0.660,-0.330
4.554,-0.030,-0.530,-0.760,-0.400
4.556,-0.010,-0.590,-0.840,-0.470
4.558,-0.010,-0.630,-0.910,-0.520
4.560,-0.010,-0.650,-0.970,-0.560
4.562,-0.010,-0.660,-1.010,-0.580
4.564,0.000,-0.670,-1.050,-0.610
4.566,0.030,-0.660,-1.080,-0.630
4.568,0.030,-0.660,-1.080,-0.640
4.570,0.030,-0.650,-1.080,-0.650
4.572,0.040,-0.650,-1.070,-0.660
4.574,0.030,-0.630,-1.060,-0.660
4.576,0.040,-0.610,-1.050,-0.680
4.578,0.060,-0.610,-1.040,-0.710
4.580,0.060,-0.620,-1.020,-0.720
4.582,0.050,-0.620,-1.010,-0.710
4.584,0.040,-0.590,-0.990,-0.720
4.586,0.050,-0.580,-0.980,-0.730
4.588,0.050,-0.570,-0.950,-0.700
4.590,0.030,-0.550,-0.940,-0.680
4.592,0.030,-0.560,-0.940,-0.690
4.594,0.040,-0.560,-0.940,-0.710
4.596,0.060,-0.560,-0.940,-0.710
4.598,0.080,-0.550,-0.930,-0.700
4.600,0.090,-0.520,-0.910,-0.700
4.602,0.080,-0.480,-0.890,-0.670
4.604,0.070,-0.440,-0.850,-0.630
4.606,0.070,-0.440,-0.840,-0.640
4.608,0.060,-0.460,-0.850,-0.680
4.610,0.060,-0.470,-0.860,-0.710
4.612,0.080,-0.460,-0.860,-0.720
4.614,0.110,-0.450,-0.850,-0.720
4.616,0.100,-0.420,-0.830,-0.710
4.618,0.090,-0.390,-0.810,-0.700
4.620,0.110,-0.390,-0.790,-0.690
4.622,0.120,-0.400,-0.770,-0.700
4.624,0.120,-0.410,-0.780,-0.710
4.626,0.120,-0.420,-0.780,-0.710
4.628,0.120,-0.420,-0.770,-0.710
4.630,0.110,-0.390,-0.750,-0.710
4.632,0.100,-0.360,-0.750,-0.690
4.634,0.090,-0.340,-0.740,-0.690
4.636,0.100,-0.330,-0.730,-0.700
4.638,0.100,-0.320,-0.720,-0.700
4.640,0.120,-0.330,-0.710,-0.700
4.642,0.110,-0.340,-0.710,-0.710
4.644,0.100,-0.350,-0.710,-0.700
4.646,0.100,-0.330,-0.690,-0.690
4.648,0.100,-0.310,-0.680,-0.700
4.650,0.100,-0.290,-0.670,-0.710
4.652,0.100,-0.290,-0.660,-0.720
4.654,0.110,-0.280,-0.650,-0.720
4.656,0.120,-0.290,-0.650,-0.720
4.658,0.110,-0.280,-0.630,-0.710
4.660,0.110,-0.270,-0.620,-0.710
4.662,0.120,-0.260,-0.620,-0.710
4.664,0.140,-0.250,-0.630,-0.720
4.666,0.160,-0.230,-0.610,-0.730
4.668,0.180,-0.220,-0.600,-0.730
4.670,0.200,-0.200,-0.590,-0.730
4.672,0.200,-0.180,-0.590,-0.730
4.674,0.200,-0.170,-0.600,-0.730
4.676,0.230,-0.170,-0.600,-0.760
4.678,0.240,-0.170,-0.610,-0.790
4.680,0.260,-0.180,-0.610,-0.810
4.682,0.280,-0.170,-0.600,-0.830
4.684,0.290,-0.160,-0.590,-0.830
4.686,0.290,-0.140,-0.580,-0.820
4.688,0.290,-0.120,-0.570,-0.800
4.690,0.300,-0.120,-0.570,-0.810
4.692,0.310,-0.140,-0.580,-0.830
4.694,0.330,-0.150,-0.590,-0.850
4.696,0.350,-0.160,-0.580,-0.850
4.698,0.370,-0.150,-0.570,-0.860
4.700,0.360,-0.110,-0.540,-0.840
4.702,0.340,-0.070,-0.500,-0.790
4.704,0.340,-0.060,-0.500,-0.790
4.706,0.350,-0.060,-0.510,-0.820
4.708,0.350,-0.080,-0.510,-0.840
4.710,0.360,-0.100,-0.510,-0.850
4.712,0.370,-0.110,-0.510,-0.850
4.714,0.380,-0.100,-0.490,-0.830
4.716,0.360,-0.070,-0.490,-0.800
4.718,0.350,-0.040,-0.500,-0.800
4.720,0.350,-0.050,-0.500,-0.790
4.722,0.340,-0.080,-0.490,-0.780
4.724,0.330,-0.100,-0.490,-0.770
4.726,0.310,-0.120,-0.490,-0.780
4.728,0.300,-0.140,-0.480,-0.760
4.730,0.270,-0.140,-0.460,-0.720
4.732,0.260,-0.140,-0.440,-0.690
4.734,0.250,-0.130,-0.430,-0.670
4.736,0.230,-0.130,-0.410,-0.640
4.738,0.200,-0.160,-0.390,-0.620
4.740,0.170,-0.200,-0.370,-0.590
4.742,0.130,-0.200,-0.350,-0.560
4.744,0.100,-0.180,-0.310,-0.510
4.746,0.090,-0.170,-0.290,-0.480
4.748,0.070,-0.170,-0.270,-0.450
4.750,0.050,-0.160,-0.250,-0.420
4.752,0.010,-0.170,-0.220,-0.370
4.754,-0.010,-0.180,-0.190,-0.320
4.756,-0.040,-0.200,-0.160,-0.250
4.758,-0.070,-0.190,-0.140,-0.220
4.760,-0.090,-0.190,-0.110,-0.190
4.762,-0.100,-0.200,-0.090,-0.170
4.764,-0.110,-0.200,-0.080,-0.150
4.766,-0.130,-0.190,-0.050,-0.120
4.768,-0.150,-0.180,-0.020,-0.090
4.770,-0.170,-0.160,0.000,-0.040
4.772,-0.190,-0.140,0.050,0.010
4.774,-0.200,-0.150,0.070,0.020
4.776,-0.200,-0.160,0.080,0.020
4.778,-0.200,-0.170,0.100,0.020
4.780,-0.220,-0.180,0.130,0.040
4.782,-0.220,-0.170,0.140,0.060
4.784,-0.240,-0.160,0.150,0.080
4.786,-0.260,-0.140,0.180,0.110
4.788,-0.250,-0.130,0.190,0.100
4.790,-0.250,-0.140,0.180,0.090
4.792,-0.260,-0.150,0.160,0.080
4.794,-0.250,-0.170,0.140,0.080
4.796,-0.250,-0.170,0.140,0.080
4.798,-0.260,-0.160,0.140,0.080
4.800,-0.270,-0.130,0.150,0.090
4.802,-0.260,-0.120,0.160,0.100
4.804,-0.260,-0.120,0.150,0.090
4.806,-0.260,-0.150,0.130,0.090
4.808,-0.260,-0.170,0.110,0.060
4.810,-0.240,-0.190,0.090,0.040
4.812,-0.240,-0.190,0.090,0.040
4.814,-0.240,-0.180,0.110,0.070
4.816,-0.250,-0.160,0.120,0.070
4.818,-0.240,-0.160,0.130,0.070
4.820,-0.230,-0.150,0.130,0.070
4.822,-0.240,-0.160,0.110,0.070
4.824,-0.240,-0.190,0.100,0.070
4.826,-0.240,-0.170,0.090,0.080
4.828,-0.250,-0.140,0.090,0.100
4.830,-0.230,-0.130,0.090,0.090
4.832,-0.200,-0.130,0.100,0.090
4.834,-0.210,-0.110,0.100,0.090
4.836,-0.220,-0.100,0.100,0.090
4.838,-0.220,-0.110,0.100,0.080
4.840,-0.230,-0.130,0.100,0.090
4.842,-0.250,-0.120,0.100,0.120
4.844,-0.250,-0.120,0.100,0.120
4.846,-0.230,-0.120,0.090,0.110
4.848,-0.200,-0.110,0.090,0.110
4.850,-0.200,-0.090,0.090,0.100
4.852,-0.200,-0.070,0.090,0.090
4.854,-0.200,-0.060,0.100,0.110
4.856,-0.210,-0.030,0.110,0.130
4.858,-0.210,-0.030,0.110,0.130
4.860,-0.200,-0.040,0.090,0.110
4.862,-0.180,-0.060,0.070,0.100
4.864,-0.170,-0.060,0.050,0.100
4.866,-0.150,-0.040,0.060,0.090
4.868,-0.150,-0.030,0.080,0.100
4.870,-0.150,0.000,0.100,0.130
4.872,-0.140,-0.010,0.100,0.140
4.874,-0.120,-0.030,0.090,0.120
4.876,-0.110,-0.060,0.070,0.110
4.878,-0.100,-0.080,0.060,0.100
4.880,-0.070,-0.090,0.050,0.110
4.882,-0.070,-0.090,0.060,0.120
4.884,-0.080,-0.060,0.070,0.140
4.886,-0.070,-0.050,0.070,0.150
4.888,-0.060,-0.050,0.080,0.140
4.890,-0.040,-0.060,0.060,0.140
4.892,-0.040,-0.070,0.050,0.130
4.894,-0.040,-0.060,0.050,0.120
4.896,-0.050,-0.060,0.060,0.120
4.898,-0.070,-0.010,0.080,0.140
4.900,-0.070,0.010,0.090,0.150
4.902,-0.050,0.010,0.080,0.140
4.904,-0.050,0.010,0.070,0.140
4.906,-0.050,0.000,0.070,0.140
4.908,-0.050,-0.020,0.070,0.140
4.910,-0.060,-0.020,0.070,0.130
4.912,-0.070,0.000,0.070,0.170
4.914,-0.060,0.000,0.070,0.190
4.916,-0.050,0.010,0.070,0.180
4.918,-0.040,0.000,0.060,0.170
4.920,-0.040,0.000,0.070,0.170
4.922,-0.050,0.000,0.070,0.170
4.924,-0.040,-0.010,0.060,0.170
4.926,-0.060,0.010,0.070,0.170
4.928,-0.060,0.020,0.060,0.180
4.930,-0.040,0.020,0.060,0.180
4.932,-0.020,0.030,0.070,0.180
4.934,-0.020,0.030,0.080,0.190
4.936,-0.030,0.020,0.080,0.190
4.938,-0.020,0.020,0.090,0.190
4.940,-0.030,0.040,0.120,0.210
4.942,-0.030,0.030,0.110,0.210
4.944,-0.020,0.010,0.090,0.190
4.946,-0.010,0.000,0.080,0.190
4.948,-0.010,-0.010,0.060,0.180
4.950,-0.010,0.000,0.050,0.180
4.952,-0.010,0.000,0.060,0.190
4.954,-0.030,0.030,0.090,0.230
4.956,-0.030,0.030,0.100,0.230
4.958,-0.020,0.000,0.090,0.210
4.960,-0.010,-0.010,0.080,0.190
4.962,0.000,-0.020,0.070,0.180
4.964,0.000,-0.040,0.050,0.180
4.966,0.010,-0.030,0.040,0.180
4.968,0.000,0.000,0.050,0.180
4.970,0.000,0.000,0.060,0.180
4.972,0.010,-0.010,0.070,0.180
4.974,0.020,-0.020,0.060,0.170
4.976,0.030,-0.030,0.040,0.160
4.978,0.040,-0.040,0.040,0.160
4.980,0.060,-0.040,0.040,0.150
4.982,0.050,-0.020,0.050,0.180
4.984,0.040,0.000,0.060,0.190
4.986,0.050,0.000,0.070,0.180
4.988,0.050,0.000,0.060,0.170
4.990,0.050,-0.020,0.040,0.150
4.992,0.040,-0.040,0.030,0.130
4.994,0.040,-0.040,0.030,0.120
4.996,0.020,-0.020,0.040,0.140
4.998,0.020,0.000,0.050,0.140
5.000,0.030,0.010,0.040,0.120
5.002,0.040,0.010,0.020,0.110
5.004,0.040,0.000,0.010,0.110
5.006,0.020,-0.010,0.000,0.120
5.008,0.010,-0.030,-0.010,0.130
5.010,0.000,-0.030,-0.010,0.150
5.012,0.000,-0.030,-0.010,0.160
5.014,0.000,-0.020,-0.020,0.160
5.016,0.000,-0.020,-0.020,0.160
5.018,0.000,-0.020,-0.020,0.150
5.020,-0.010,-0.040,-0.020,0.150
5.022,-0.020,-0.040,-0.020,0.160
5.024,-0.050,-0.010,0.000,0.180
5.026,-0.040,-0.020,0.010,0.180
5.028,-0.030,-0.040,0.000,0.170
5.030,-0.010,-0.060,0.000,0.170
5.032,-0.010,-0.060,0.000,0.170
5.034,-0.020,-0.050,0.000,0.180
5.036,-0.030,-0.040,0.010,0.190
5.038,-0.040,-0.020,0.030,0.220
5.040,-0.040,-0.020,0.040,0.220
5.042,-0.040,-0.040,0.050,0.210
5.044,-0.050,-0.060,0.050,0.190
5.046,-0.050,-0.080,0.040,0.190
5.048,-0.050,-0.090,0.050,0.190
5.050,-0.050,-0.060,0.070,0.200
5.052,-0.060,-0.030,0.090,0.220
5.054,-0.060,-0.020,0.090,0.230
5.056,-0.060,-0.040,0.070,0.230
5.058,-0.050,-0.060,0.050,0.220
5.060,-0.030,-0.070,0.040,0.200
5.062,-0.010,-0.080,0.040,0.190
5.064,0.000,-0.080,0.040,0.200
5.066,0.000,-0.050,0.070,0.210
5.068,0.000,-0.020,0.080,0.210
5.070,0.000,-0.010,0.080,0.200
5.072,0.000,-0.020,0.070,0.200
5.074,0.000,-0.020,0.070,0.190
5.076,0.000,-0.030,0.070,0.170
5.078,0.000,-0.040,0.060,0.150
5.080,0.000,-0.020,0.060,0.150
5.082,0.000,0.010,0.050,0.140
5.084,0.010,0.030,0.050,0.120
5.086,0.030,0.040,0.050,0.110
5.088,0.070,0.030,0.050,0.100
5.090,0.080,0.010,0.050,0.090
5.092,0.090,0.000,0.050,0.070
5.094,0.090,0.000,0.050,0.070
5.096,0.090,0.010,0.050,0.070
5.098,0.100,0.030,0.050,0.070
5.100,0.110,0.050,0.050,0.070
5.102,0.100,0.050,0.050,0.070
5.104,0.100,0.050,0.050,0.060
5.106,0.080,0.030,0.050,0.050
5.108,0.060,0.040,0.070,0.060
5.110,0.050,0.050,0.080,0.080
5.112,0.050,0.040,0.070,0.070
5.114,0.070,0.030,0.050,0.060
5.116,0.080,0.050,0.040,0.050
5.118,0.090,0.060,0.040,0.050
5.120,0.110,0.070,0.040,0.050
5.122,0.110,0.080,0.040,0.060
5.124,0.090,0.080,0.040,0.060
5.126,0.090,0.040,0.020,0.040
5.128,0.100,0.010,0.010,0.010
5.130,0.110,0.000,0.000,0.000
5.132,0.120,-0.010,-0.030,-0.020
5.134,0.130,-0.030,-0.070,-0.070
5.136,0.140,-0.020,-0.110,-0.110
5.138,0.160,-0.030,-0.180,-0.160
5.140,0.190,-0.070,-0.230,-0.220
5.142,0.200,-0.110,-0.230,-0.240
5.144,0.210,-0.100,-0.160,-0.200
5.146,0.220,-0.020,0.010,-0.060
5.148,0.210,0.100,0.270,0.130
5.150,0.190,0.310,0.610,0.370
5.152,0.230,0.610,1.020,0.620
5.154,0.340,0.960,1.490,0.870
5.156,0.460,1.330,2.000,1.150
5.158,0.560,1.720,2.540,1.430
5.160,0.650,2.120,3.100,1.730
5.162,0.750,2.530,3.670,2.040
5.164,0.830,2.960,4.210,2.360
5.166,0.900,3.360,4.680,2.620
5.168,0.950,3.630,5.000,2.790
5.170,0.970,3.770,5.140,2.880
5.172,0.930,3.760,5.120,2.890
5.174,0.840,3.600,4.920,2.810
5.176,0.670,3.220,4.490,2.620
5.178,0.420,2.680,3.870,2.380
5.180,0.160,2.080,3.150,2.100
5.182,0.000,1.530,2.470,1.770
5.184,-0.110,1.080,1.860,1.430
5.186,-0.170,0.720,1.340,1.110
5.188,-0.200,0.420,0.890,0.830
5.190,-0.210,0.170,0.510,0.580
5.192,-0.200,-0.010,0.190,0.360
5.194,-0.200,-0.150,-0.060,0.180
5.196,-0.170,-0.270,-0.280,0.030
5.198,-0.140,-0.380,-0.460,-0.090
5.200,-0.130,-0.460,-0.610,-0.210
5.202,-0.120,-0.530,-0.730,-0.310
5.204,-0.100,-0.590,-0.820,-0.390
5.206,-0.090,-0.630,-0.890,-0.440
5.208,-0.080,-0.660,-0.940,-0.490
5.210,-0.060,-0.690,-0.970,-0.560
5.212,-0.050,-0.700,-1.010,-0.610
5.214,-0.030,-0.710,-1.040,-0.640
5.216,-0.010,-0.700,-1.050,-0.650
5.218,-0.010,-0.690,-1.050,-0.660
5.220,-0.010,-0.670,-1.050,-0.660
5.222,-0.020,-0.650,-1.030,-0.640
5.224,-0.010,-0.660,-1.030,-0.660
5.226,0.000,-0.680,-1.030,-0.700
5.228,0.010,-0.690,-1.030,-0.710
5.230,0.000,-0.690,-1.030,-0.710
5.232,0.000,-0.680,-1.020,-0.710
5.234,0.010,-0.650,-1.000,-0.690
5.236,0.010,-0.610,-0.990,-0.670
5.238,0.040,-0.600,-0.980,-0.670
5.240,0.050,-0.610,-0.980,-0.690
5.242,0.050,-0.620,-0.980,-0.710
5.244,0.070,-0.620,-0.960,-0.720
5.246,0.070,-0.600,-0.950,-0.720
5.248,0.060,-0.560,-0.910,-0.690
5.250,0.060,-0.520,-0.880,-0.660
5.252,0.050,-0.490,-0.860,-0.660
5.254,0.060,-0.490,-0.840,-0.670
5.256,0.070,-0.510,-0.830,-0.690
5.258,0.080,-0.520,-0.830,-0.690
5.260,0.090,-0.520,-0.810,-0.700
5.262,0.100,-0.490,-0.800,-0.690
5.264,0.080,-0.450,-0.790,-0.670
5.266,0.090,-0.430,-0.770,-0.680
5.268,0.090,-0.420,-0.760,-0.690
5.270,0.100,-0.410,-0.760,-0.690
5.272,0.110,-0.420,-0.760,-0.690
5.274,0.110,-0.430,-0.750,-0.700
5.276,0.100,-0.430,-0.740,-0.690
5.278,0.090,-0.410,-0.720,-0.680
5.280,0.100,-0.400,-0.700,-0.680
5.282,0.100,-0.380,-0.690,-0.690
5.284,0.100,-0.360,-0.690,-0.690
5.286,0.100,-0.350,-0.690,-0.690
5.288,0.100,-0.350,-0.680,-0.670
5.290,0.080,-0.340,-0.670,-0.650
5.292,0.080,-0.330,-0.660,-0.650
5.294,0.100,-0.340,-0.650,-0.660
5.296,0.120,-0.350,-0.640,-0.670
5.298,0.130,-0.340,-0.630,-0.660
5.300,0.120,-0.330,-0.620,-0.650
5.302,0.120,-0.310,-0.620,-0.640
5.304,0.120,-0.270,-0.600,-0.620
5.306,0.120,-0.240,-0.580,-0.610
5.308,0.120,-0.250,-0.580,-0.630
5.310,0.130,-0.260,-0.580,-0.640
5.312,0.130,-0.270,-0.580,-0.650
5.314,0.130,-0.270,-0.580,-0.660
5.316,0.130,-0.260,-0.570,-0.670
5.318,0.140,-0.240,-0.560,-0.650
5.320,0.130,-0.220,-0.550,-0.630
5.322,0.150,-0.220,-0.550,-0.630
5.324,0.170,-0.230,-0.560,-0.650
5.326,0.160,-0.250,-0.570,-0.660
5.328,0.170,-0.260,-0.570,-0.680
5.330,0.190,-0.250,-0.580,-0.700
5.332,0.210,-0.210,-0.580,-0.700
5.334,0.220,-0.170,-0.570,-0.690
5.336,0.240,-0.150,-0.560,-0.690
5.338,0.270,-0.150,-0.560,-0.710
5.340,0.280,-0.180,-0.550,-0.730
5.342,0.290,-0.180,-0.540,-0.760
5.344,0.300,-0.190,-0.540,-0.780
5.346,0.310,-0.190,-0.540,-0.770
5.348,0.310,-0.150,-0.520,-0.750
5.350,0.320,-0.130,-0.500,-0.750
5.352,0.330,-0.120,-0.490,-0.750
5.354,0.340,-0.130,-0.480,-0.740
5.356,0.350,-0.140,-0.470,-0.740
5.358,0.340,-0.150,-0.470,-0.740
5.360,0.340,-0.150,-0.470,-0.740
5.362,0.330,-0.130,-0.450,-0.690
5.364,0.330,-0.120,-0.430,-0.680
5.366,0.340,-0.110,-0.420,-0.680
5.368,0.320,-0.120,-0.420,-0.680
5.370,0.310,-0.120,-0.420,-0.680
5.372,0.310,-0.140,-0.420,-0.670
5.374,0.290,-0.160,-0.420,-0.660
5.376,0.260,-0.170,-0.410,-0.640
5.378,0.250,-0.190,-0.410,-0.620
5.380,0.230,-0.200,-0.410,-0.600
5.382,0.210,-0.200,-0.410,-0.570
5.384,0.180,-0.200,-0.400,-0.530
5.386,0.150,-0.200,-0.400,-0.490
5.388,0.110,-0.220,-0.390,-0.440
5.390,0.080,-0.210,-0.370,-0.400
5.392,0.050,-0.220,-0.350,-0.370
5.394,0.020,-0.240,-0.330,-0.350
5.396,0.000,-0.270,-0.310,-0.310
5.398,-0.020,-0.290,-0.280,-0.260
5.400,-0.040,-0.290,-0.250,-0.200
5.402,-0.080,-0.300,-0.210,-0.140
5.404,-0.130,-0.280,-0.170,-0.060
5.406,-0.170,-0.280,-0.130,-0.010
5.408,-0.200,-0.290,-0.110,0.010
5.410,-0.230,-0.310,-0.090,0.020
5.412,-0.240,-0.330,-0.080,0.050
5.414,-0.250,-0.330,-0.040,0.080
5.416,-0.270,-0.300,-0.010,0.140
5.418,-0.310,-0.250,0.010,0.200
5.420,-0.320,-0.230,0.040,0.230
5.422,-0.330,-0.240,0.060,0.240
5.424,-0.340,-0.260,0.080,0.240
5.426,-0.360,-0.270,0.090,0.250
5.428,-0.360,-0.290,0.090,0.250
5.430,-0.370,-0.280,0.110,0.280
5.432,-0.380,-0.250,0.130,0.310
5.434,-0.370,-0.220,0.140,0.320
5.436,-0.360,-0.200,0.130,0.330
5.438,-0.350,-0.190,0.140,0.330
5.440,-0.340,-0.210,0.140,0.330
5.442,-0.340,-0.230,0.140,0.320
5.444,-0.350,-0.230,0.150,0.320
5.446,-0.360,-0.200,0.170,0.330
5.448,-0.360,-0.180,0.170,0.340
5.450,-0.350,-0.170,0.170,0.330
5.452,-0.350,-0.160,0.170,0.320
5.454,-0.340,-0.170,0.170,0.330
5.456,-0.330,-0.180,0.150,0.320
5.458,-0.320,-0.190,0.140,0.310
5.460,-0.340,-0.180,0.160,0.320
5.462,-0.330,-0.170,0.160,0.310
5.464,-0.310,-0.170,0.160,0.300
5.466,-0.310,-0.160,0.140,0.290
5.468,-0.310,-0.150,0.130,0.280
5.470,-0.300,-0.140,0.130,0.280
5.472,-0.290,-0.150,0.120,0.300
5.474,-0.300,-0.140,0.130,0.320
5.476,-0.280,-0.150,0.130,0.310
5.478,-0.260,-0.170,0.120,0.300
5.480,-0.240,-0.180,0.120,0.300
5.482,-0.230,-0.190,0.110,0.290
5.484,-0.240,-0.170,0.110,0.280
5.486,-0.250,-0.140,0.110,0.290
5.488,-0.280,-0.110,0.120,0.310
5.490,-0.290,-0.110,0.120,0.320
5.492,-0.270,-0.120,0.110,0.310
5.494,-0.250,-0.130,0.090,0.300
5.496,-0.250,-0.140,0.080,0.290
5.498,-0.230,-0.140,0.070,0.290
5.500,-0.230,-0.120,0.070,0.300
5.502,-0.240,-0.090,0.090,0.320
5.504,-0.250,-0.080,0.100,0.320
5.506,-0.230,-0.090,0.090,0.310
5.508,-0.230,-0.110,0.080,0.290
5.510,-0.220,-0.130,0.070,0.270
5.512,-0.210,-0.120,0.070,0.260
5.514,-0.200,-0.110,0.070,0.280
5.516,-0.190,-0.070,0.070,0.300
5.518,-0.200,-0.050,0.090,0.310
5.520,-0.200,-0.050,0.090,0.310
5.522,-0.200,-0.050,0.080,0.320
5.524,-0.200,-0.070,0.080,0.310
5.526,-0.190,-0.080,0.080,0.290
5.528,-0.170,-0.080,0.080,0.290
5.530,-0.170,-0.050,0.090,0.310
5.532,-0.160,-0.020,0.100,0.310
5.534,-0.150,-0.010,0.100,0.320
5.536,-0.140,-0.020,0.100,0.330
5.538,-0.140,-0.020,0.100,0.340
5.540,-0.130,-0.040,0.100,0.350
5.542,-0.140,-0.040,0.110,0.350
5.544,-0.160,-0.010,0.140,0.370
5.546,-0.170,0.000,0.150,0.380
5.548,-0.140,0.000,0.140,0.370
5.550,-0.140,0.010,0.140,0.370
5.552,-0.140,0.020,0.140,0.360
5.554,-0.140,0.000,0.140,0.370
5.556,-0.130,-0.010,0.130,0.370
5.558,-0.130,0.000,0.130,0.370
5.560,-0.110,0.000,0.130,0.360
5.562,-0.100,0.000,0.120,0.340
5.564,-0.090,0.000,0.110,0.320
5.566,-0.080,0.000,0.110,0.320
5.568,-0.080,0.000,0.120,0.310
5.570,-0.080,0.000,0.120,0.320
5.572,-0.100,0.020,0.120,0.330
5.574,-0.100,0.010,0.120,0.320
5.576,-0.090,-0.010,0.120,0.300
5.578,-0.090,-0.030,0.120,0.290
5.580,-0.080,-0.040,0.140,0.290
5.582,-0.080,-0.040,0.140,0.290
5.584,-0.090,-0.030,0.150,0.290
5.586,-0.110,-0.010,0.170,0.320
5.588,-0.120,0.000,0.180,0.350
5.590,-0.110,-0.020,0.160,0.340
5.592,-0.090,-0.040,0.150,0.310
5.594,-0.080,-0.050,0.140,0.300
5.596,-0.080,-0.060,0.140,0.300
5.598,-0.080,-0.050,0.140,0.310
5.600,-0.090,-0.020,0.150,0.330
5.602,-0.090,0.000,0.150,0.330
5.604,-0.090,0.000,0.150,0.320
5.606,-0.080,-0.020,0.160,0.310
5.608,-0.080,-0.030,0.150,0.300
5.610,-0.080,-0.040,0.130,0.290
5.612,-0.070,-0.050,0.120,0.280
5.614,-0.080,-0.030,0.120,0.290
5.616,-0.080,0.000,0.130,0.310
5.618,-0.080,0.010,0.140,0.310
5.620,-0.070,0.010,0.140,0.310
5.622,-0.080,0.000,0.130,0.300
5.624,-0.080,-0.020,0.110,0.300
5.626,-0.080,-0.040,0.100,0.290
5.628,-0.090,-0.030,0.110,0.300
5.630,-0.080,-0.010,0.120,0.320
5.632,-0.070,0.000,0.120,0.320
5.634,-0.070,0.000,0.110,0.320
5.636,-0.070,-0.010,0.100,0.320
5.638,-0.070,-0.030,0.090,0.300
5.640,-0.070,-0.060,0.070,0.300
5.642,-0.100,-0.050,0.060,0.310
5.644,-0.100,-0.040,0.050,0.310
5.646,-0.100,-0.060,0.050,0.300
5.648,-0.090,-0.070,0.050,0.290
5.650,-0.090,-0.060,0.070,0.280
5.652,-0.090,-0.050,0.080,0.270
5.654,-0.080,-0.070,0.080,0.280
5.656,-0.090,-0.060,0.090,0.320
5.658,-0.110,-0.050,0.110,0.340
5.660,-0.110,-0.050,0.090,0.320
5.662,-0.110,-0.080,0.080,0.310
5.664,-0.100,-0.080,0.080,0.300
5.666,-0.090,-0.070,0.080,0.290
5.668,-0.090,-0.060,0.080,0.300
5.670,-0.100,-0.050,0.080,0.320
5.672,-0.120,-0.050,0.100,0.330
5.674,-0.120,-0.060,0.110,0.320
5.676,-0.120,-0.070,0.090,0.300
5.678,-0.110,-0.080,0.070,0.290
5.680,-0.110,-0.090,0.060,0.300
5.682,-0.100,-0.090,0.070,0.320
5.684,-0.100,-0.050,0.090,0.340
5.686,-0.110,-0.020,0.100,0.350
5.688,-0.120,-0.020,0.090,0.340
5.690,-0.110,-0.040,0.080,0.320
5.692,-0.110,-0.060,0.070,0.290
5.694,-0.100,-0.080,0.070,0.270
5.696,-0.100,-0.080,0.080,0.280
5.698,-0.090,-0.040,0.100,0.310
5.700,-0.100,0.000,0.120,0.330
5.702,-0.090,0.000,0.120,0.310
5.704,-0.080,0.000,0.110,0.300
5.706,-0.070,-0.020,0.100,0.290
5.708,-0.070,-0.040,0.100,0.270
5.710,-0.050,-0.050,0.090,0.250
5.712,-0.040,-0.040,0.090,0.260
5.714,-0.040,-0.020,0.090,0.260
5.716,-0.040,-0.010,0.080,0.250
5.718,-0.040,-0.020,0.070,0.230
5.720,-0.040,-0.020,0.060,0.220
5.722,-0.030,-0.030,0.050,0.190
5.724,-0.020,-0.050,0.040,0.170
5.726,-0.020,-0.040,0.030,0.170
5.728,-0.030,-0.030,0.020,0.170
5.730,0.000,-0.030,0.030,0.170
5.732,0.010,-0.020,0.030,0.160
5.734,0.010,-0.010,0.020,0.150
5.736,0.010,-0.010,0.020,0.150
5.738,0.020,-0.020,0.020,0.150
5.740,0.000,-0.010,0.050,0.160
5.742,-0.010,0.000,0.070,0.170
5.744,0.000,0.000,0.060,0.160
5.746,0.000,-0.010,0.050,0.150
5.748,0.010,-0.020,0.040,0.130
5.750,0.020,-0.010,0.050,0.120
5.752,0.040,0.000,0.040,0.120
5.754,0.040,0.000,0.040,0.120
5.756,0.040,0.010,0.060,0.130
5.758,0.030,0.000,0.060,0.120
5.760,0.030,-0.010,0.050,0.110
5.762,0.040,-0.030,0.030,0.090
5.764,0.050,-0.040,0.000,0.070
5.766,0.060,-0.030,-0.010,0.040
5.768,0.070,0.000,-0.020,0.020
5.770,0.070,0.010,-0.060,0.000
5.772,0.090,-0.020,-0.140,-0.050
5.774,0.110,-0.050,-0.190,-0.080
5.776,0.120,-0.060,-0.170,-0.090
5.778,0.130,-0.030,-0.060,-0.020
5.780,0.130,0.040,0.130,0.130
5.782,0.110,0.190,0.430,0.350
5.784,0.110,0.420,0.810,0.590
5.786,0.170,0.720,1.260,0.840
5.788,0.280,1.060,1.760,1.110
5.790,0.400,1.410,2.280,1.390
5.792,0.480,1.780,2.820,1.700
5.794,0.560,2.160,3.360,2.010
5.796,0.630,2.570,3.890,2.320
5.798,0.680,2.980,4.360,2.610
5.800,0.740,3.300,4.720,2.800
5.802,0.770,3.480,4.910,2.900
5.804,0.760,3.520,4.930,2.930
5.806,0.700,3.400,4.760,2.850
5.808,0.550,3.080,4.390,2.670
5.810,0.300,2.570,3.810,2.440
5.812,0.050,1.990,3.140,2.160
5.814,-0.130,1.460,2.500,1.870
5.816,-0.240,1.030,1.920,1.570
5.818,-0.290,0.690,1.440,1.280
5.820,-0.310,0.420,1.020,1.010
5.822,-0.310,0.200,0.650,0.780
5.824,-0.300,0.020,0.350,0.590
5.826,-0.290,-0.110,0.120,0.430
5.828,-0.250,-0.220,-0.080,0.270
5.830,-0.210,-0.320,-0.260,0.120
5.832,-0.170,-0.410,-0.400,0.000
5.834,-0.150,-0.470,-0.520,-0.110
5.836,-0.130,-0.520,-0.610,-0.200
5.838,-0.110,-0.560,-0.680,-0.250
5.840,-0.100,-0.580,-0.730,-0.290
5.842,-0.080,-0.600,-0.780,-0.360
5.844,-0.060,-0.640,-0.820,-0.420
5.846,-0.060,-0.650,-0.850,-0.450
5.848,-0.030,-0.660,-0.850,-0.470
5.850,-0.010,-0.660,-0.850,-0.480
5.852,-0.010,-0.640,-0.850,-0.480
5.854,-0.020,-0.610,-0.840,-0.480
5.856,0.000,-0.600,-0.840,-0.500
5.858,0.010,-0.600,-0.850,-0.530
5.860,0.020,-0.610,-0.860,-0.550
5.862,0.030,-0.610,-0.860,-0.570
5.864,0.050,-0.590,-0.850,-0.580
5.866,0.050,-0.560,-0.830,-0.570
5.868,0.040,-0.530,-0.810,-0.540
5.870,0.040,-0.500,-0.800,-0.540
5.872,0.050,-0.500,-0.790,-0.550
5.874,0.060,-0.520,-0.790,-0.560
5.876,0.060,-0.540,-0.790,-0.580
5.878,0.060,-0.550,-0.790,-0.580
5.880,0.050,-0.520,-0.780,-0.550
5.882,0.030,-0.470,-0.750,-0.520
5.884,0.030,-0.440,-0.750,-0.520
5.886,0.030,-0.430,-0.740,-0.530
5.888,0.040,-0.440,-0.730,-0.530
5.890,0.040,-0.440,-0.720,-0.540
5.892,0.040,-0.440,-0.730,-0.570
5.894,0.030,-0.440,-0.730,-0.580
5.896,0.020,-0.420,-0.710,-0.580
5.898,0.030,-0.400,-0.700,-0.580
5.900,0.050,-0.380,-0.690,-0.590
5.902,0.070,-0.370,-0.680,-0.590
5.904,0.070,-0.370,-0.660,-0.570
5.906,0.050,-0.370,-0.650,-0.540
5.908,0.030,-0.360,-0.640,-0.540
5.910,0.020,-0.340,-0.630,-0.540
5.912,0.020,-0.340,-0.630,-0.550
5.914,0.030,-0.340,-0.620,-0.560
5.916,0.040,-0.320,-0.620,-0.570
5.918,0.050,-0.300,-0.610,-0.570
5.920,0.060,-0.290,-0.610,-0.570
5.922,0.060,-0.290,-0.590,-0.570
5.924,0.010,-0.280,-0.560,-0.540
5.926,0.000,-0.290,-0.550,-0.550
5.928,0.020,-0.300,-0.550,-0.560
5.930,0.050,-0.290,-0.560,-0.570
5.932,0.080,-0.270,-0.560,-0.580
5.934,0.090,-0.260,-0.550,-0.590
5.936,0.090,-0.240,-0.540,-0.580
5.938,0.090,-0.220,-0.530,-0.560
5.940,0.090,-0.230,-0.530,-0.560
5.942,0.100,-0.240,-0.530,-0.580
5.944,0.110,-0.250,-0.530,-0.590
5.946,0.110,-0.250,-0.530,-0.600
5.948,0.120,-0.230,-0.530,-0.620
5.950,0.130,-0.210,-0.530,-0.630
5.952,0.120,-0.170,-0.520,-0.610
5.954,0.140,-0.150,-0.510,-0.620
5.956,0.170,-0.150,-0.510,-0.640
5.958,0.190,-0.170,-0.520,-0.660
5.960,0.210,-0.180,-0.530,-0.680
5.962,0.220,-0.190,-0.540,-0.680
5.964,0.240,-0.170,-0.520,-0.660
5.966,0.240,-0.110,-0.490,-0.640
5.968,0.250,-0.070,-0.470,-0.660
5.970,0.270,-0.050,-0.470,-0.690
5.972,0.300,-0.060,-0.480,-0.710
5.974,0.310,-0.080,-0.490,-0.730
5.976,0.300,-0.090,-0.500,-0.750
5.978,0.310,-0.090,-0.490,-0.760
5.980,0.320,-0.070,-0.480,-0.750
5.982,0.350,-0.050,-0.480,-0.740
5.984,0.340,-0.040,-0.470,-0.740
5.986,0.330,-0.030,-0.460,-0.740
5.988,0.340,-0.040,-0.470,-0.740
5.990,0.340,-0.070,-0.480,-0.740
5.992,0.340,-0.080,-0.480,-0.740
5.994,0.340,-0.070,-0.470,-0.740
5.996,0.340,-0.070,-0.470,-0.730
5.998,0.340,-0.070,-0.460,-0.720
6.000,0.330,-0.070,-0.450,-0.720
6.002,0.310,-0.080,-0.450,-0.710
6.004,0.300,-0.090,-0.450,-0.700
6.006,0.290,-0.100,-0.450,-0.670
6.008,0.250,-0.110,-0.430,-0.650
6.010,0.220,-0.130,-0.410,-0.650
6.012,0.210,-0.160,-0.410,-0.630
6.014,0.200,-0.180,-0.400,-0.610
6.016,0.170,-0.180,-0.390,-0.580
6.018,0.150,-0.180,-0.380,-0.540
6.020,0.110,-0.180,-0.360,-0.500
6.022,0.080,-0.160,-0.320,-0.430
6.024,0.040,-0.180,-0.300,-0.410
6.026,0.020,-0.190,-0.270,-0.400
6.028,0.000,-0.200,-0.250,-0.380
6.030,-0.020,-0.210,-0.220,-0.340
6.032,-0.050,-0.220,-0.190,-0.310
6.034,-0.080,-0.220,-0.160,-0.260
6.036,-0.110,-0.200,-0.140,-0.200
6.038,-0.140,-0.210,-0.120,-0.160
6.040,-0.160,-0.230,-0.100,-0.130
6.042,-0.180,-0.250,-0.070,-0.110
6.044,-0.200,-0.260,-0.050,-0.090
6.046,-0.210,-0.260,-0.020,-0.060
6.048,-0.230,-0.230,0.000,-0.020
6.050,-0.290,-0.170,0.060,0.030
6.052,-0.320,-0.140,0.090,0.060
6.054,-0.330,-0.140,0.100,0.070
6.056,-0.340,-0.150,0.100,0.100
6.058,-0.340,-0.180,0.100,0.110
6.060,-0.330,-0.200,0.110,0.120
6.062,-0.340,-0.200,0.120,0.140
6.064,-0.360,-0.150,0.160,0.200
6.066,-0.370,-0.130,0.180,0.220
6.068,-0.370,-0.150,0.180,0.210
6.070,-0.370,-0.160,0.170,0.210
6.072,-0.360,-0.190,0.170,0.200
6.074,-0.360,-0.220,0.160,0.190
6.076,-0.380,-0.220,0.150,0.180
6.078,-0.390,-0.210,0.150,0.190
6.080,-0.380,-0.200,0.150,0.200
6.082,-0.360,-0.190,0.150,0.190
6.084,-0.360,-0.190,0.160,0.190
6.086,-0.360,-0.190,0.150,0.180
6.088,-0.340,-0.200,0.130,0.180
6.090,-0.340,-0.220,0.120,0.170
6.092,-0.360,-0.220,0.140,0.180
6.094,-0.370,-0.210,0.150,0.190
6.096,-0.350,-0.210,0.150,0.190
6.098,-0.330,-0.200,0.140,0.180
6.100,-0.330,-0.190,0.140,0.180
6.102,-0.330,-0.170,0.130,0.180
6.104,-0.330,-0.160,0.130,0.180
6.106,-0.340,-0.130,0.140,0.200
6.108,-0.350,-0.140,0.140,0.190
6.110,-0.330,-0.150,0.130,0.170
6.112,-0.320,-0.170,0.120,0.150
6.114,-0.300,-0.170,0.120,0.140
6.116,-0.280,-0.170,0.120,0.140
6.118,-0.290,-0.160,0.120,0.150
6.120,-0.290,-0.140,0.120,0.180
6.122,-0.300,-0.130,0.130,0.200
6.124,-0.300,-0.150,0.130,0.200
6.126,-0.300,-0.160,0.130,0.190
6.128,-0.300,-0.170,0.120,0.180
6.130,-0.290,-0.170,0.120,0.180
6.132,-0.280,-0.160,0.130,0.170
6.134,-0.280,-0.130,0.160,0.200
6.136,-0.300,-0.110,0.170,0.220
6.138,-0.300,-0.110,0.170,0.210
6.140,-0.300,-0.120,0.160,0.190
6.142,-0.290,-0.130,0.150,0.170
6.144,-0.270,-0.140,0.130,0.160
6.146,-0.270,-0.130,0.120,0.170
6.148,-0.280,-0.100,0.120,0.190
6.150,-0.270,-0.100,0.130,0.200
6.152,-0.260,-0.100,0.130,0.200
6.154,-0.260,-0.100,0.120,0.200
6.156,-0.260,-0.110,0.110,0.210
6.158,-0.250,-0.120,0.100,0.200
6.160,-0.250,-0.130,0.100,0.190
6.162,-0.250,-0.110,0.110,0.200
6.164,-0.260,-0.090,0.140,0.200
6.166,-0.250,-0.080,0.140,0.190
6.168,-0.240,-0.080,0.130,0.180
6.170,-0.230,-0.080,0.130,0.170
6.172,-0.220,-0.070,0.130,0.170
6.174,-0.220,-0.070,0.120,0.170
6.176,-0.240,-0.040,0.140,0.200
6.178,-0.250,-0.020,0.150,0.220
6.180,-0.240,-0.010,0.150,0.230
6.182,-0.220,-0.010,0.150,0.220
6.184,-0.210,-0.020,0.150,0.210
6.186,-0.200,-0.030,0.150,0.200
6.188,-0.190,-0.030,0.140,0.210
6.190,-0.180,-0.030,0.120,0.220
6.192,-0.180,-0.040,0.120,0.200
6.194,-0.180,-0.040,0.130,0.190
6.196,-0.170,-0.050,0.120,0.190
6.198,-0.140,-0.050,0.120,0.200
6.200,-0.120,-0.050,0.130,0.210
6.202,-0.130,-0.050,0.140,0.230
6.204,-0.140,-0.030,0.160,0.260
6.206,-0.150,-0.020,0.170,0.280
6.208,-0.140,-0.050,0.160,0.260
6.210,-0.140,-0.070,0.150,0.240
6.212,-0.140,-0.080,0.140,0.240
6.214,-0.120,-0.070,0.140,0.240
6.216,-0.120,-0.050,0.120,0.260
6.218,-0.140,-0.020,0.120,0.300
6.220,-0.160,0.000,0.130,0.320
6.222,-0.160,-0.030,0.130,0.320
6.224,-0.150,-0.050,0.120,0.310
6.226,-0.160,-0.070,0.110,0.290
6.228,-0.150,-0.080,0.100,0.280
6.230,-0.140,-0.080,0.090,0.270
6.232,-0.140,-0.050,0.080,0.270
6.234,-0.150,-0.020,0.090,0.280
6.236,-0.150,-0.010,0.110,0.280
6.238,-0.150,-0.010,0.120,0.280
6.240,-0.150,-0.030,0.130,0.280
6.242,-0.160,-0.050,0.120,0.260
6.244,-0.160,-0.060,0.110,0.240
6.246,-0.170,-0.050,0.130,0.270
6.248,-0.180,-0.030,0.150,0.300
6.250,-0.170,-0.020,0.150,0.300
6.252,-0.170,-0.030,0.140,0.290
6.254,-0.160,-0.040,0.130,0.280
6.256,-0.140,-0.050,0.110,0.270
6.258,-0.130,-0.060,0.100,0.270
6.260,-0.140,-0.050,0.100,0.270
6.262,-0.140,-0.060,0.090,0.270
6.264,-0.130,-0.070,0.100,0.270
6.266,-0.120,-0.070,0.100,0.270
6.268,-0.130,-0.070,0.100,0.260
6.270,-0.120,-0.060,0.090,0.260
6.272,-0.110,-0.070,0.070,0.270
6.274,-0.120,-0.070,0.070,0.280
6.276,-0.130,-0.060,0.070,0.290
6.278,-0.130,-0.080,0.060,0.280
6.280,-0.130,-0.090,0.050,0.270
6.282,-0.120,-0.090,0.050,0.270
6.284,-0.130,-0.080,0.050,0.270
6.286,-0.140,-0.080,0.050,0.280
6.288,-0.160,-0.060,0.040,0.310
6.290,-0.170,-0.060,0.040,0.330
6.292,-0.160,-0.080,0.040,0.320
6.294,-0.150,-0.100,0.050,0.320
6.296,-0.150,-0.110,0.060,0.320
6.298,-0.140,-0.120,0.070,0.330
6.300,-0.150,-0.100,0.080,0.330
6.302,-0.170,-0.080,0.090,0.350
6.304,-0.170,-0.070,0.100,0.380
6.306,-0.170,-0.070,0.100,0.380
6.308,-0.160,-0.060,0.090,0.360
6.310,-0.150,-0.060,0.080,0.330
6.312,-0.140,-0.060,0.080,0.330
6.314,-0.130,-0.050,0.080,0.320
6.316,-0.140,-0.010,0.090,0.330
6.318,-0.130,0.000,0.090,0.340
6.320,-0.120,0.010,0.090,0.330
6.322,-0.120,0.000,0.090,0.320
6.324,-0.130,-0.010,0.090,0.300
6.326,-0.140,-0.030,0.100,0.280
6.328,-0.140,-0.050,0.100,0.270
6.330,-0.140,-0.030,0.100,0.280
6.332,-0.130,-0.020,0.100,0.270
6.334,-0.130,-0.010,0.100,0.250
6.336,-0.130,-0.010,0.100,0.240
6.338,-0.120,0.000,0.090,0.220
6.340,-0.110,-0.020,0.080,0.210
6.342,-0.110,-0.030,0.060,0.190
6.344,-0.110,-0.020,0.050,0.190
6.346,-0.110,-0.010,0.050,0.200
6.348,-0.090,-0.010,0.050,0.190
6.350,-0.070,-0.010,0.050,0.170
6.352,-0.060,-0.010,0.040,0.160
6.354,-0.060,0.000,0.030,0.170
6.356,-0.060,-0.010,0.030,0.160
6.358,-0.070,0.000,0.040,0.180
6.360,-0.070,0.010,0.060,0.190
6.362,-0.060,0.010,0.060,0.190
6.364,-0.050,0.020,0.050,0.170
6.366,-0.040,0.030,0.040,0.160
6.368,-0.060,0.040,0.030,0.150
6.370,-0.060,0.040,0.030,0.160
6.372,-0.070,0.040,0.030,0.170
6.374,-0.070,0.040,0.030,0.160
6.376,-0.060,0.020,0.040,0.140
6.378,-0.040,0.010,0.030,0.120
6.380,-0.020,-0.010,0.010,0.110
6.382,-0.010,-0.020,0.000,0.100
6.384,-0.010,-0.010,-0.020,0.070
6.386,0.000,0.000,-0.040,0.040
6.388,0.000,0.010,-0.050,0.010
6.390,0.020,0.000,-0.100,-0.040
6.392,0.040,-0.050,-0.160,-0.100
6.394,0.060,-0.080,-0.200,-0.130
6.396,0.070,-0.090,-0.180,-0.100
6.398,0.080,-0.050,-0.080,-0.020
6.400,0.050,0.040,0.130,0.140
6.402,0.020,0.190,0.420,0.350
6.404,0.040,0.400,0.760,0.550
6.406,0.110,0.670,1.180,0.770
6.408,0.190,0.970,1.640,1.010
6.410,0.280,1.310,2.120,1.280
6.412,0.350,1.650,2.610,1.570
6.414,0.410,2.010,3.100,1.870
6.416,0.450,2.370,3.590,2.160
6.418,0.490,2.670,3.990,2.410
6.420,0.510,2.880,4.240,2.580
6.422,0.530,2.980,4.330,2.650
6.424,0.530,2.960,4.270,2.610
6.426,0.490,2.800,4.030,2.470
6.428,0.370,2.460,3.610,2.270
6.430,0.170,2.000,3.050,2.040
6.432,0.000,1.520,2.450,1.740
6.434,-0.120,1.120,1.920,1.440
6.436,-0.180,0.790,1.470,1.180
6.438,-0.210,0.530,1.090,0.930
6.440,-0.210,0.300,0.750,0.710
6.442,-0.210,0.120,0.470,0.510
6.444,-0.210,0.000,0.240,0.330
6.446,-0.200,-0.100,0.040,0.170
6.448,-0.170,-0.190,-0.130,0.050
6.450,-0.160,-0.250,-0.260,-0.050
6.452,-0.150,-0.310,-0.380,-0.140
6.454,-0.140,-0.370,-0.480,-0.220
6.456,-0.120,-0.420,-0.570,-0.270
6.458,-0.130,-0.430,-0.640,-0.320
6.460,-0.120,-0.470,-0.700,-0.370
6.462,-0.110,-0.500,-0.760,-0.420
6.464,-0.100,-0.520,-0.790,-0.440
6.466,-0.080,-0.520,-0.800,-0.470
6.468,-0.080,-0.520,-0.810,-0.490
6.470,-0.070,-0.520,-0.820,-0.500
6.472,-0.050,-0.520,-0.820,-0.500
6.474,-0.040,-0.530,-0.830,-0.520
6.476,-0.040,-0.540,-0.840,-0.550
6.478,-0.040,-0.550,-0.850,-0.560
6.480,-0.030,-0.550,-0.840,-0.560
6.482,-0.020,-0.540,-0.830,-0.560
6.484,-0.020,-0.510,-0.820,-0.560
6.486,-0.010,-0.460,-0.790,-0.550
6.488,0.000,-0.450,-0.770,-0.550
6.490,0.000,-0.440,-0.760,-0.550
6.492,0.000,-0.440,-0.750,-0.560
6.494,-0.010,-0.440,-0.750,-0.570
6.496,-0.010,-0.430,-0.750,-0.570
6.498,0.000,-0.410,-0.740,-0.570
6.500,-0.010,-0.370,-0.720,-0.560
6.502,-0.010,-0.340,-0.700,-0.560
6.504,0.000,-0.330,-0.690,-0.560
6.506,0.000,-0.330,-0.680,-0.570
6.508,0.000,-0.340,-0.670,-0.590
6.510,0.000,-0.340,-0.660,-0.610
6.512,0.010,-0.330,-0.650,-0.610
6.514,0.000,-0.290,-0.640,-0.590
6.516,0.000,-0.270,-0.630,-0.590
6.518,0.010,-0.250,-0.610,-0.610
6.520,0.010,-0.250,-0.600,-0.620
6.522,0.010,-0.250,-0.600,-0.620
6.524,0.010,-0.260,-0.600,-0.620
6.526,0.030,-0.270,-0.590,-0.630
6.528,0.030,-0.280,-0.570,-0.620
6.530,0.030,-0.270,-0.560,-0.610
6.532,0.040,-0.270,-0.550,-0.620
6.534,0.040,-0.260,-0.540,-0.640
6.536,0.040,-0.240,-0.540,-0.650
6.538,0.030,-0.230,-0.550,-0.640
6.540,0.040,-0.230,-0.550,-0.620
6.542,0.030,-0.220,-0.540,-0.600
6.544,0.040,-0.210,-0.530,-0.600
6.546,0.050,-0.210,-0.530,-0.620
6.548,0.060,-0.200,-0.520,-0.620
6.550,0.050,-0.180,-0.500,-0.630
6.552,0.040,-0.170,-0.470,-0.630
6.554,0.040,-0.160,-0.450,-0.630
6.556,0.040,-0.150,-0.450,-0.620
6.558,0.040,-0.160,-0.450,-0.620
6.560,0.050,-0.160,-0.460,-0.640
6.562,0.060,-0.160,-0.470,-0.640
6.564,0.070,-0.150,-0.470,-0.650
6.566,0.070,-0.150,-0.460,-0.660
6.568,0.060,-0.130,-0.460,-0.660
6.570,0.040,-0.120,-0.450,-0.620
6.572,0.040,-0.100,-0.440,-0.620
6.574,0.050,-0.100,-0.440,-0.640
6.576,0.060,-0.110,-0.440,-0.660
6.578,0.080,-0.130,-0.440,-0.660
6.580,0.100,-0.130,-0.440,-0.660
6.582,0.120,-0.110,-0.430,-0.650
6.584,0.120,-0.070,-0.410,-0.640
6.586,0.130,-0.050,-0.400,-0.640
6.588,0.150,-0.050,-0.400,-0.660
6.590,0.150,-0.050,-0.400,-0.670
6.592,0.160,-0.050,-0.390,-0.680
6.594,0.170,-0.050,-0.390,-0.690
6.596,0.160,-0.050,-0.380,-0.690
6.598,0.160,-0.030,-0.370,-0.680
6.600,0.170,-0.020,-0.360,-0.680
6.602,0.180,-0.020,-0.350,-0.690
6.604,0.180,-0.020,-0.350,-0.690
6.606,0.180,-0.030,-0.350,-0.700
6.608,0.190,-0.050,-0.360,-0.710
6.610,0.200,-0.060,-0.360,-0.700
6.612,0.190,-0.030,-0.340,-0.660
6.614,0.190,-0.020,-0.330,-0.630
6.616,0.180,-0.010,-0.330,-0.630
6.618,0.180,0.000,-0.320,-0.630
6.620,0.170,-0.010,-0.320,-0.620
6.622,0.170,-0.040,-0.320,-0.610
6.624,0.160,-0.050,-0.330,-0.600
6.626,0.150,-0.030,-0.320,-0.580
6.628,0.140,-0.030,-0.320,-0.580
6.630,0.130,-0.050,-0.320,-0.590
6.632,0.110,-0.070,-0.310,-0.580
6.634,0.100,-0.080,-0.290,-0.560
6.636,0.090,-0.080,-0.270,-0.540
6.638,0.070,-0.090,-0.260,-0.500
6.640,0.040,-0.080,-0.240,-0.450
6.642,0.030,-0.090,-0.230,-0.440
6.644,0.010,-0.110,-0.210,-0.430
6.646,0.000,-0.130,-0.190,-0.410
6.648,0.000,-0.120,-0.170,-0.380
6.650,-0.020,-0.120,-0.150,-0.340
6.652,-0.050,-0.130,-0.140,-0.290
6.654,-0.080,-0.110,-0.120,-0.230
6.656,-0.110,-0.110,-0.090,-0.200
6.658,-0.120,-0.140,-0.080,-0.180
6.660,-0.140,-0.160,-0.080,-0.150
6.662,-0.160,-0.160,-0.060,-0.120
6.664,-0.170,-0.160,-0.030,-0.100
6.666,-0.180,-0.140,0.000,-0.070
6.668,-0.210,-0.110,0.020,-0.030
6.670,-0.220,-0.100,0.030,0.000
6.672,-0.220,-0.130,0.040,0.000
6.674,-0.240,-0.140,0.060,0.000
6.676,-0.260,-0.160,0.070,0.000
6.678,-0.270,-0.160,0.090,0.020
6.680,-0.280,-0.150,0.100,0.040
6.682,-0.290,-0.120,0.120,0.080
6.684,-0.300,-0.110,0.120,0.100
6.686,-0.280,-0.110,0.120,0.110
6.688,-0.280,-0.120,0.120,0.110
6.690,-0.270,-0.140,0.130,0.100
6.692,-0.270,-0.140,0.130,0.100
6.694,-0.280,-0.140,0.130,0.090
6.696,-0.290,-0.130,0.140,0.110
6.698,-0.300,-0.110,0.150,0.110
6.700,-0.300,-0.110,0.160,0.110
6.702,-0.290,-0.110,0.160,0.110
6.704,-0.290,-0.120,0.160,0.110
6.706,-0.270,-0.140,0.150,0.100
6.708,-0.250,-0.140,0.150,0.090
6.710,-0.260,-0.110,0.170,0.110
6.712,-0.250,-0.090,0.170,0.120
6.714,-0.240,-0.090,0.160,0.120
6.716,-0.230,-0.070,0.150,0.110
6.718,-0.240,-0.060,0.140,0.110
6.720,-0.240,-0.060,0.140,0.100
6.722,-0.250,-0.060,0.120,0.110
6.724,-0.270,-0.040,0.140,0.140
6.726,-0.290,-0.030,0.160,0.150
6.728,-0.270,-0.050,0.150,0.130
6.730,-0.250,-0.070,0.140,0.110
6.732,-0.230,-0.080,0.140,0.100
6.734,-0.220,-0.060,0.130,0.100
6.736,-0.220,-0.060,0.130,0.100
6.738,-0.220,-0.050,0.140,0.120
6.740,-0.230,-0.060,0.130,0.130
6.742,-0.220,-0.070,0.130,0.120
6.744,-0.210,-0.090,0.120,0.110
6.746,-0.200,-0.100,0.120,0.110
6.748,-0.170,-0.100,0.120,0.110
6.750,-0.170,-0.080,0.130,0.130
6.752,-0.190,-0.050,0.150,0.150
6.754,-0.180,-0.030,0.150,0.140
6.756,-0.160,-0.030,0.140,0.130
6.758,-0.160,-0.050,0.140,0.130
6.760,-0.150,-0.070,0.140,0.120
6.762,-0.150,-0.080,0.130,0.130
6.764,-0.140,-0.070,0.130,0.140
6.766,-0.150,-0.040,0.140,0.160
6.768,-0.150,-0.020,0.160,0.170
6.770,-0.140,-0.020,0.160,0.170
6.772,-0.130,-0.030,0.150,0.170
6.774,-0.140,-0.040,0.150,0.160
6.776,-0.150,-0.050,0.150,0.150
6.778,-0.140,-0.050,0.140,0.160
6.780,-0.130,-0.030,0.140,0.190
6.782,-0.130,-0.010,0.170,0.210
6.784,-0.120,0.000,0.180,0.210
6.786,-0.100,0.010,0.180,0.210
6.788,-0.080,0.010,0.160,0.210
6.790,-0.080,0.000,0.140,0.210
6.792,-0.090,0.000,0.130,0.200
6.794,-0.100,0.000,0.130,0.200
6.796,-0.090,0.010,0.140,0.200
6.798,-0.080,0.000,0.140,0.200
6.800,-0.080,0.000,0.140,0.200
6.802,-0.080,0.000,0.150,0.200
6.804,-0.070,0.000,0.160,0.210
6.806,-0.060,0.000,0.160,0.210
6.808,-0.080,0.010,0.160,0.220
6.810,-0.080,0.020,0.180,0.220
6.812,-0.060,0.000,0.170,0.200
6.814,-0.040,-0.010,0.150,0.190
6.816,-0.040,-0.010,0.140,0.180
6.818,-0.040,-0.020,0.140,0.170
6.820,-0.050,-0.030,0.150,0.180
6.822,-0.070,-0.030,0.150,0.210
6.824,-0.070,-0.020,0.150,0.220
6.826,-0.060,-0.040,0.140,0.200
6.828,-0.040,-0.060,0.130,0.200
6.830,-0.040,-0.070,0.120,0.210
6.832,-0.050,-0.080,0.110,0.210
6.834,-0.060,-0.070,0.110,0.220
6.836,-0.070,-0.040,0.110,0.240
6.838,-0.080,-0.020,0.120,0.260
6.840,-0.070,-0.040,0.120,0.260
6.842,-0.070,-0.050,0.110,0.260
6.844,-0.070,-0.070,0.090,0.240
6.846,-0.060,-0.080,0.080,0.240
6.848,-0.050,-0.070,0.070,0.230
6.850,-0.060,-0.040,0.060,0.240
6.852,-0.050,-0.010,0.070,0.260
6.854,-0.040,-0.010,0.070,0.260
6.856,-0.030,-0.030,0.080,0.250
6.858,-0.040,-0.050,0.070,0.240
6.860,-0.030,-0.060,0.060,0.230
6.862,-0.010,-0.060,0.060,0.220
6.864,-0.010,-0.040,0.070,0.230
6.866,-0.020,-0.010,0.080,0.250
6.868,-0.030,-0.010,0.090,0.260
6.870,-0.020,-0.020,0.080,0.250
6.872,-0.020,-0.030,0.050,0.250
6.874,-0.020,-0.040,0.030,0.240
6.876,-0.020,-0.060,0.020,0.220
6.878,-0.030,-0.060,0.020,0.230
6.880,-0.040,-0.040,0.030,0.250
6.882,-0.050,-0.040,0.030,0.250
6.884,-0.040,-0.040,0.020,0.250
6.886,-0.040,-0.040,0.020,0.250
6.888,-0.030,-0.050,0.010,0.250
6.890,-0.020,-0.070,0.000,0.240
6.892,-0.030,-0.060,0.000,0.220
6.894,-0.030,-0.060,0.000,0.220
6.896,-0.030,-0.080,0.000,0.220
6.898,-0.030,-0.080,0.000,0.210
6.900,-0.030,-0.070,0.000,0.210
6.902,-0.020,-0.070,0.000,0.210
6.904,-0.020,-0.070,0.000,0.210
6.906,-0.040,-0.080,0.010,0.230
6.908,-0.050,-0.080,0.010,0.240
6.910,-0.040,-0.100,0.010,0.220
6.912,-0.040,-0.110,0.020,0.220
6.914,-0.040,-0.120,0.020,0.220
6.916,-0.040,-0.110,0.020,0.220
6.918,-0.040,-0.100,0.030,0.240
6.920,-0.050,-0.080,0.030,0.280
6.922,-0.070,-0.060,0.050,0.320
6.924,-0.070,-0.070,0.060,0.320
6.926,-0.070,-0.070,0.060,0.310
6.928,-0.080,-0.080,0.060,0.300
6.930,-0.080,-0.080,0.060,0.300
6.932,-0.060,-0.070,0.060,0.290
6.934,-0.060,-0.040,0.080,0.300
6.936,-0.070,-0.010,0.090,0.310
6.938,-0.050,0.000,0.100,0.300
6.940,-0.030,-0.010,0.090,0.290
6.942,-0.030,-0.030,0.090,0.280
6.944,0.000,-0.040,0.090,0.270
6.946,0.000,-0.050,0.090,0.260
6.948,0.010,-0.030,0.100,0.270
6.950,0.000,0.000,0.110,0.290
6.952,0.000,0.000,0.100,0.270
6.954,0.000,0.000,0.090,0.260
6.956,0.010,-0.020,0.070,0.250
6.958,0.020,-0.030,0.060,0.220
6.960,0.040,-0.040,0.050,0.200
6.962,0.050,-0.030,0.050,0.210
6.964,0.040,0.000,0.080,0.240
6.966,0.040,0.010,0.090,0.230
6.968,0.050,0.020,0.080,0.200
6.970,0.060,0.030,0.070,0.180
6.972,0.090,0.020,0.060,0.170
6.974,0.100,0.000,0.040,0.140
6.976,0.100,0.000,0.040,0.130
6.978,0.100,0.000,0.040,0.140
6.980,0.110,0.000,0.040,0.130
6.982,0.130,-0.010,0.030,0.120
6.984,0.130,0.000,0.030,0.120
6.986,0.120,0.000,0.040,0.110
6.988,0.120,0.000,0.040,0.100
6.990,0.110,-0.010,0.030,0.120
6.992,0.090,-0.010,0.030,0.140
6.994,0.100,-0.020,0.030,0.120
6.996,0.110,-0.020,0.030,0.110
6.998,0.110,-0.010,0.040,0.100
7.000,0.110,0.000,0.040,0.100
7.002,0.110,0.000,0.030,0.100
7.004,0.090,0.000,0.000,0.090
7.006,0.090,0.010,-0.010,0.080
7.008,0.100,0.000,-0.050,0.030
7.010,0.130,-0.010,-0.100,-0.020
7.012,0.160,-0.040,-0.180,-0.080
7.014,0.180,-0.070,-0.230,-0.110
7.016,0.190,-0.070,-0.220,-0.110
7.018,0.200,-0.020,-0.130,-0.050
7.020,0.190,0.070,0.040,0.070
7.022,0.190,0.190,0.300,0.250
7.024,0.180,0.350,0.650,0.450
7.026,0.230,0.610,1.070,0.680
7.028,0.320,0.940,1.540,0.920
7.030,0.420,1.300,2.050,1.190
7.032,0.510,1.680,2.570,1.500
7.034,0.570,2.070,3.090,1.810
7.036,0.640,2.430,3.600,2.120
7.038,0.690,2.760,4.080,2.400
7.040,0.730,3.030,4.440,2.620
7.042,0.750,3.220,4.650,2.730
7.044,0.770,3.290,4.710,2.760
7.046,0.740,3.260,4.610,2.740
7.048,0.670,3.120,4.360,2.630
7.050,0.530,2.780,3.900,2.420
7.052,0.330,2.280,3.290,2.150
7.054,0.150,1.740,2.640,1.850
7.056,0.030,1.270,2.040,1.540
7.058,-0.030,0.880,1.530,1.230
7.060,-0.070,0.570,1.110,0.960
7.062,-0.090,0.360,0.760,0.730
7.064,-0.090,0.170,0.450,0.520
7.066,-0.090,0.010,0.180,0.330
7.068,-0.090,-0.120,-0.030,0.170
7.070,-0.080,-0.240,-0.220,0.030
7.072,-0.050,-0.350,-0.380,-0.080
7.074,-0.040,-0.430,-0.510,-0.180
7.076,-0.050,-0.470,-0.620,-0.240
7.078,-0.040,-0.530,-0.710,-0.310
7.080,-0.020,-0.570,-0.790,-0.370
7.082,-0.020,-0.600,-0.850,-0.430
7.084,-0.020,-0.610,-0.890,-0.470
7.086,-0.010,-0.640,-0.910,-0.510
7.088,0.000,-0.650,-0.930,-0.530
7.090,0.000,-0.640,-0.930,-0.540
7.092,0.010,-0.640,-0.940,-0.550
7.094,0.010,-0.660,-0.950,-0.580
7.096,0.020,-0.660,-0.950,-0.590
7.098,0.030,-0.660,-0.950,-0.590
7.100,0.030,-0.650,-0.940,-0.590
7.102,0.030,-0.640,-0.920,-0.580
7.104,0.020,-0.610,-0.900,-0.550
7.106,0.010,-0.600,-0.880,-0.540
7.108,0.010,-0.600,-0.870,-0.560
7.110,0.030,-0.600,-0.870,-0.580
7.112,0.050,-0.590,-0.870,-0.590
7.114,0.070,-0.570,-0.870,-0.600
7.116,0.080,-0.540,-0.850,-0.590
7.118,0.050,-0.480,-0.810,-0.560
7.120,0.040,-0.460,-0.800,-0.550
7.122,0.050,-0.460,-0.790,-0.550
7.124,0.070,-0.470,-0.790,-0.570
7.126,0.080,-0.470,-0.780,-0.590
7.128,0.090,-0.460,-0.780,-0.600
7.130,0.090,-0.450,-0.770,-0.590
7.132,0.100,-0.430,-0.770,-0.560
7.134,0.100,-0.400,-0.760,-0.550
7.136,0.110,-0.390,-0.750,-0.550
7.138,0.100,-0.400,-0.740,-0.560
7.140,0.100,-0.410,-0.730,-0.570
7.142,0.100,-0.410,-0.720,-0.580
7.144,0.110,-0.400,-0.700,-0.580
7.146,0.110,-0.350,-0.670,-0.570
7.148,0.110,-0.320,-0.640,-0.550
7.150,0.110,-0.310,-0.620,-0.560
7.152,0.110,-0.310,-0.610,-0.560
7.154,0.110,-0.310,-0.610,-0.550
7.156,0.120,-0.320,-0.600,-0.540
7.158,0.110,-0.330,-0.600,-0.550
7.160,0.080,-0.310,-0.570,-0.530
7.162,0.080,-0.300,-0.570,-0.530
7.164,0.090,-0.290,-0.580,-0.530
7.166,0.100,-0.280,-0.600,-0.540
7.168,0.110,-0.280,-0.590,-0.550
7.170,0.110,-0.280,-0.580,-0.550
7.172,0.110,-0.280,-0.560,-0.540
7.174,0.100,-0.260,-0.540,-0.540
7.176,0.110,-0.250,-0.530,-0.550
7.178,0.130,-0.270,-0.530,-0.550
7.180,0.140,-0.270,-0.540,-0.540
7.182,0.170,-0.270,-0.540,-0.550
7.184,0.170,-0.260,-0.540,-0.550
7.186,0.170,-0.240,-0.540,-0.560
7.188,0.170,-0.210,-0.530,-0.560
7.190,0.160,-0.210,-0.540,-0.560
7.192,0.170,-0.230,-0.540,-0.580
7.194,0.170,-0.240,-0.530,-0.590
7.196,0.170,-0.240,-0.530,-0.610
7.198,0.200,-0.240,-0.520,-0.630
7.200,0.220,-0.220,-0.510,-0.640
7.202,0.210,-0.190,-0.500,-0.630
7.204,0.210,-0.170,-0.490,-0.620
7.206,0.220,-0.160,-0.480,-0.640
7.208,0.240,-0.160,-0.490,-0.660
7.210,0.250,-0.170,-0.510,-0.680
7.212,0.270,-0.180,-0.520,-0.700
7.214,0.290,-0.170,-0.520,-0.700
7.216,0.300,-0.140,-0.520,-0.700
7.218,0.290,-0.110,-0.520,-0.690
7.220,0.290,-0.100,-0.510,-0.700
7.222,0.290,-0.100,-0.500,-0.710
7.224,0.310,-0.110,-0.490,-0.720
7.226,0.330,-0.110,-0.470,-0.720
7.228,0.350,-0.110,-0.460,-0.730
7.230,0.350,-0.080,-0.440,-0.700
7.232,0.350,-0.060,-0.420,-0.670
7.234,0.360,-0.040,-0.410,-0.680
7.236,0.360,-0.040,-0.410,-0.680
7.238,0.360,-0.050,-0.410,-0.660
7.240,0.350,-0.080,-0.400,-0.640
7.242,0.340,-0.100,-0.410,-0.640
7.244,0.300,-0.100,-0.410,-0.620
7.246,0.280,-0.090,-0.400,-0.610
7.248,0.270,-0.090,-0.400,-0.600
7.250,0.270,-0.080,-0.390,-0.600
7.252,0.260,-0.090,-0.380,-0.580
7.254,0.250,-0.100,-0.370,-0.560
7.256,0.240,-0.120,-0.370,-0.540
7.258,0.210,-0.120,-0.340,-0.490
7.260,0.190,-0.120,-0.320,-0.460
7.262,0.170,-0.130,-0.310,-0.450
7.264,0.150,-0.130,-0.300,-0.430
7.266,0.130,-0.140,-0.280,-0.400
7.268,0.100,-0.140,-0.250,-0.360
7.270,0.080,-0.140,-0.220,-0.310
7.272,0.050,-0.120,-0.190,-0.250
7.274,0.020,-0.120,-0.150,-0.200
7.276,0.000,-0.150,-0.120,-0.180
7.278,-0.010,-0.170,-0.110,-0.150
7.280,-0.020,-0.180,-0.090,-0.120
7.282,-0.040,-0.190,-0.060,-0.090
7.284,-0.060,-0.180,-0.030,-0.050
7.286,-0.110,-0.160,0.000,0.000
7.288,-0.140,-0.140,0.020,0.020
7.290,-0.160,-0.160,0.040,0.040
7.292,-0.180,-0.180,0.050,0.050
7.294,-0.190,-0.190,0.070,0.060
7.296,-0.200,-0.210,0.080,0.090
7.298,-0.200,-0.200,0.100,0.110
7.300,-0.210,-0.170,0.130,0.140
7.302,-0.220,-0.150,0.130,0.170
7.304,-0.220,-0.140,0.140,0.170
7.306,-0.230,-0.160,0.150,0.180
7.308,-0.230,-0.170,0.150,0.190
7.310,-0.230,-0.180,0.150,0.190
7.312,-0.240,-0.180,0.160,0.180
7.314,-0.250,-0.160,0.180,0.210
7.316,-0.240,-0.130,0.200,0.260
7.318,-0.250,-0.120,0.190,0.260
7.320,-0.260,-0.130,0.190,0.250
7.322,-0.270,-0.170,0.190,0.230
7.324,-0.270,-0.190,0.190,0.230
7.326,-0.270,-0.200,0.190,0.220
7.328,-0.260,-0.180,0.180,0.220
7.330,-0.270,-0.150,0.180,0.220
7.332,-0.260,-0.140,0.180,0.210
7.334,-0.240,-0.140,0.180,0.210
7.336,-0.230,-0.130,0.180,0.210
7.338,-0.220,-0.130,0.170,0.200
7.340,-0.210,-0.140,0.170,0.190
7.342,-0.230,-0.140,0.170,0.180
7.344,-0.240,-0.130,0.180,0.190
7.346,-0.230,-0.130,0.180,0.180
7.348,-0.220,-0.120,0.180,0.170
7.350,-0.210,-0.110,0.170,0.160
7.352,-0.200,-0.110,0.160,0.150
7.354,-0.200,-0.100,0.160,0.160
7.356,-0.220,-0.080,0.180,0.190
7.358,-0.240,-0.080,0.220,0.200
7.360,-0.220,-0.100,0.220,0.180
7.362,-0.200,-0.110,0.200,0.170
7.364,-0.190,-0.110,0.180,0.150
7.366,-0.190,-0.100,0.170,0.150
7.368,-0.180,-0.100,0.160,0.160
7.370,-0.190,-0.080,0.160,0.180
7.372,-0.190,-0.070,0.160,0.200
7.374,-0.170,-0.090,0.150,0.180
7.376,-0.170,-0.120,0.140,0.160
7.378,-0.170,-0.130,0.130,0.160
7.380,-0.180,-0.140,0.120,0.160
7.382,-0.160,-0.120,0.120,0.160
7.384,-0.150,-0.080,0.120,0.170
7.386,-0.160,-0.060,0.120,0.190
7.388,-0.150,-0.070,0.130,0.190
7.390,-0.140,-0.100,0.120,0.180
7.392,-0.140,-0.110,0.120,0.160
7.394,-0.140,-0.120,0.110,0.150
7.396,-0.150,-0.130,0.110,0.150
7.398,-0.170,-0.090,0.130,0.160
7.400,-0.170,-0.040,0.150,0.180
7.402,-0.160,-0.030,0.150,0.180
7.404,-0.140,-0.030,0.150,0.190
7.406,-0.120,-0.030,0.160,0.190
7.408,-0.110,-0.050,0.150,0.180
7.410,-0.100,-0.050,0.140,0.170
7.412,-0.090,-0.040,0.130,0.170
7.414,-0.090,-0.020,0.140,0.190
7.416,-0.080,-0.010,0.140,0.190
7.418,-0.080,-0.010,0.140,0.190
7.420,-0.080,-0.010,0.140,0.200
7.422,-0.080,-0.020,0.140,0.210
7.424,-0.080,-0.040,0.140,0.200
7.426,-0.090,-0.020,0.140,0.190
7.428,-0.090,-0.010,0.150,0.200
7.430,-0.070,0.000,0.140,0.200
7.432,-0.060,0.000,0.140,0.190
7.434,-0.050,0.000,0.140,0.180
7.436,-0.040,0.000,0.150,0.180
7.438,-0.030,0.000,0.140,0.180
7.440,-0.040,-0.010,0.130,0.180
7.442,-0.050,0.000,0.140,0.180
7.444,-0.040,-0.010,0.140,0.170
7.446,-0.030,-0.010,0.150,0.170
7.448,-0.020,-0.020,0.150,0.170
7.450,-0.020,-0.020,0.150,0.180
7.452,-0.020,-0.030,0.150,0.190
7.454,-0.010,-0.030,0.150,0.200
7.456,-0.010,-0.030,0.140,0.230
7.458,-0.010,-0.040,0.130,0.230
7.460,-0.020,-0.040,0.130,0.200
7.462,-0.020,-0.050,0.120,0.190
7.464,-0.010,-0.050,0.110,0.190
7.466,-0.010,-0.050,0.110,0.190
7.468,-0.030,-0.030,0.110,0.200
7.470,-0.040,-0.020,0.110,0.210
7.472,-0.040,-0.030,0.100,0.220
7.474,-0.030,-0.050,0.090,0.210
7.476,-0.020,-0.050,0.070,0.210
7.478,-0.010,-0.060,0.060,0.200
7.480,-0.020,-0.070,0.070,0.210
7.482,-0.030,-0.030,0.090,0.220
7.484,-0.050,0.000,0.110,0.250
7.486,-0.040,0.010,0.120,0.250
7.488,-0.020,0.000,0.100,0.250
7.490,-0.010,-0.010,0.080,0.240
7.492,-0.010,-0.030,0.080,0.220
