0.000,-0.110,-0.250,-0.330,0.130
0.002,-0.110,-0.250,-0.320,0.120
0.004,-0.120,-0.250,-0.290,0.110
0.006,-0.130,-0.250,-0.240,0.070
0.008,-0.140,-0.240,-0.210,0.030
0.010,-0.160,-0.220,-0.170,-0.010
0.012,-0.190,-0.190,-0.120,-0.070
0.014,-0.200,-0.170,-0.090,-0.110
0.016,-0.200,-0.150,-0.060,-0.130
0.018,-0.190,-0.130,-0.030,-0.140
0.020,-0.190,-0.110,0.000,-0.150
0.022,-0.180,-0.090,0.020,-0.180
0.024,-0.170,-0.040,0.050,-0.210
0.026,-0.180,0.000,0.080,-0.240
0.028,-0.190,0.000,0.110,-0.260
0.030,-0.210,0.010,0.120,-0.280
0.032,-0.210,0.030,0.140,-0.300
0.034,-0.190,0.040,0.170,-0.290
0.036,-0.180,0.050,0.200,-0.280
0.038,-0.170,0.060,0.210,-0.300
0.040,-0.180,0.100,0.230,-0.350
0.042,-0.190,0.120,0.250,-0.360
0.044,-0.190,0.110,0.260,-0.360
0.046,-0.190,0.110,0.280,-0.370
0.048,-0.180,0.120,0.300,-0.360
0.050,-0.180,0.120,0.320,-0.350
0.052,-0.160,0.110,0.310,-0.350
0.054,-0.160,0.120,0.320,-0.360
0.056,-0.170,0.120,0.340,-0.370
0.058,-0.160,0.120,0.350,-0.370
0.060,-0.160,0.120,0.350,-0.360
0.062,-0.160,0.120,0.340,-0.350
0.064,-0.160,0.120,0.340,-0.350
0.066,-0.160,0.130,0.330,-0.340
0.068,-0.160,0.140,0.330,-0.340
0.070,-0.170,0.140,0.330,-0.340
0.072,-0.170,0.130,0.330,-0.330
0.074,-0.160,0.120,0.320,-0.330
0.076,-0.150,0.110,0.320,-0.330
0.078,-0.160,0.100,0.330,-0.330
0.080,-0.170,0.120,0.330,-0.340
0.082,-0.180,0.140,0.320,-0.340
0.084,-0.160,0.130,0.290,-0.320
0.086,-0.140,0.110,0.270,-0.290
0.088,-0.120,0.090,0.260,-0.290
0.090,-0.100,0.080,0.250,-0.290
0.092,-0.110,0.070,0.240,-0.290
0.094,-0.120,0.060,0.240,-0.280
0.096,-0.140,0.080,0.250,-0.300
0.098,-0.150,0.100,0.250,-0.310
0.100,-0.150,0.090,0.240,-0.280
0.102,-0.130,0.070,0.230,-0.250
0.104,-0.110,0.050,0.220,-0.230
0.106,-0.100,0.050,0.220,-0.230
0.108,-0.100,0.070,0.220,-0.240
0.110,-0.110,0.090,0.230,-0.260
0.112,-0.110,0.090,0.230,-0.280
0.114,-0.110,0.080,0.230,-0.270
0.116,-0.100,0.060,0.220,-0.250
0.118,-0.090,0.050,0.210,-0.230
0.120,-0.090,0.050,0.200,-0.220
0.122,-0.100,0.050,0.190,-0.220
0.124,-0.110,0.060,0.190,-0.230
0.126,-0.100,0.070,0.180,-0.230
0.128,-0.090,0.060,0.170,-0.230
0.130,-0.080,0.060,0.180,-0.240
0.132,-0.060,0.040,0.180,-0.230
0.134,-0.060,0.020,0.170,-0.200
0.136,-0.060,0.020,0.160,-0.180
0.138,-0.070,0.040,0.160,-0.190
0.140,-0.070,0.050,0.170,-0.190
0.142,-0.060,0.040,0.160,-0.180
0.144,-0.050,0.050,0.150,-0.180
0.146,-0.050,0.050,0.150,-0.180
0.148,-0.040,0.060,0.140,-0.170
0.150,-0.030,0.060,0.130,-0.150
0.152,-0.050,0.060,0.130,-0.140
0.154,-0.050,0.070,0.130,-0.130
0.156,-0.030,0.060,0.120,-0.120
0.158,-0.030,0.050,0.120,-0.120
0.160,-0.030,0.050,0.140,-0.130
0.162,-0.040,0.050,0.150,-0.130
0.164,-0.040,0.060,0.160,-0.150
0.166,-0.040,0.070,0.160,-0.150
0.168,-0.040,0.060,0.170,-0.130
0.170,-0.040,0.060,0.160,-0.110
0.172,-0.040,0.060,0.140,-0.110
0.174,-0.030,0.050,0.140,-0.100
0.176,-0.030,0.050,0.140,-0.100
0.178,-0.030,0.060,0.140,-0.110
0.180,-0.040,0.080,0.150,-0.120
0.182,-0.040,0.080,0.140,-0.110
0.184,-0.030,0.060,0.130,-0.090
0.186,-0.010,0.060,0.120,-0.080
0.188,0.000,0.050,0.120,-0.070
0.190,0.000,0.050,0.110,-0.080
0.192,0.000,0.050,0.100,-0.090
0.194,-0.010,0.080,0.110,-0.130
0.196,-0.020,0.090,0.110,-0.140
0.198,-0.010,0.080,0.090,-0.130
0.200,-0.010,0.080,0.080,-0.110
0.202,-0.020,0.080,0.070,-0.080
0.204,-0.010,0.070,0.070,-0.070
0.206,0.000,0.060,0.070,-0.070
0.208,-0.010,0.080,0.060,-0.080
0.210,-0.040,0.080,0.070,-0.100
0.212,-0.040,0.070,0.080,-0.090
0.214,-0.030,0.060,0.080,-0.090
0.216,-0.010,0.060,0.080,-0.100
0.218,0.000,0.060,0.080,-0.080
0.220,0.000,0.060,0.070,-0.070
0.222,0.000,0.070,0.070,-0.090
0.224,0.000,0.080,0.070,-0.090
0.226,0.000,0.070,0.070,-0.090
0.228,0.000,0.070,0.080,-0.090
0.230,-0.010,0.060,0.100,-0.100
0.232,-0.010,0.050,0.100,-0.090
0.234,-0.010,0.050,0.100,-0.070
0.236,0.000,0.070,0.090,-0.060
0.238,0.000,0.070,0.090,-0.070
0.240,0.000,0.070,0.080,-0.070
0.242,0.000,0.070,0.070,-0.070
0.244,0.000,0.070,0.080,-0.070
0.246,-0.010,0.070,0.090,-0.070
0.248,-0.010,0.070,0.100,-0.080
0.250,-0.020,0.090,0.090,-0.080
0.252,-0.020,0.100,0.080,-0.060
0.254,0.000,0.080,0.070,-0.040
0.256,0.000,0.070,0.060,-0.030
0.258,0.000,0.050,0.050,-0.040
0.260,-0.010,0.050,0.060,-0.040
0.262,-0.020,0.040,0.070,-0.050
0.264,-0.020,0.040,0.080,-0.070
0.266,-0.010,0.040,0.080,-0.060
0.268,0.000,0.040,0.100,-0.040
0.270,0.000,0.040,0.100,-0.030
0.272,0.010,0.030,0.090,-0.020
0.274,0.010,0.020,0.080,-0.010
0.276,0.010,0.040,0.070,-0.010
0.278,0.000,0.060,0.060,-0.040
0.280,0.000,0.070,0.070,-0.060
0.282,0.000,0.080,0.070,-0.040
0.284,0.010,0.080,0.060,-0.010
0.286,0.020,0.060,0.040,0.000
0.288,0.030,0.040,0.030,0.010
0.290,0.040,0.040,0.030,0.000
0.292,0.020,0.060,0.040,-0.020
0.294,0.000,0.080,0.060,-0.040
0.296,0.000,0.070,0.060,-0.050
0.298,0.000,0.060,0.050,-0.040
0.300,0.010,0.050,0.040,-0.030
0.302,0.020,0.050,0.040,-0.010
0.304,0.030,0.030,0.030,0.000
0.306,0.030,0.040,0.040,-0.040
0.308,0.010,0.050,0.060,-0.070
0.310,0.010,0.040,0.060,-0.060
0.312,0.000,0.040,0.060,-0.050
0.314,0.000,0.030,0.050,-0.040
0.316,0.000,0.010,0.050,-0.020
0.318,0.000,0.000,0.040,0.000
0.320,-0.010,0.010,0.040,-0.010
0.322,-0.010,0.020,0.050,-0.040
0.324,-0.020,0.020,0.060,-0.050
0.326,-0.040,0.020,0.070,-0.050
0.328,-0.050,0.010,0.080,-0.050
0.330,-0.050,0.000,0.080,-0.070
0.332,-0.040,0.000,0.080,-0.080
0.334,-0.060,0.010,0.090,-0.080
0.336,-0.070,0.020,0.090,-0.070
0.338,-0.040,0.000,0.090,-0.070
0.340,-0.040,-0.010,0.090,-0.070
0.342,-0.040,-0.010,0.090,-0.070
0.344,-0.040,0.000,0.100,-0.080
0.346,-0.040,0.000,0.110,-0.090
0.348,-0.030,0.020,0.110,-0.110
0.350,-0.030,0.040,0.120,-0.110
0.352,-0.010,0.030,0.110,-0.080
0.354,0.000,0.030,0.100,-0.060
0.356,0.000,0.020,0.080,-0.050
0.358,0.000,0.010,0.080,-0.050
0.360,0.000,0.030,0.090,-0.050
0.362,-0.020,0.050,0.090,-0.060
0.364,-0.010,0.070,0.070,-0.060
0.366,0.000,0.050,0.060,-0.040
0.368,0.000,0.040,0.050,-0.020
0.370,0.000,0.020,0.040,0.000
0.372,0.000,0.000,0.030,0.000
0.374,0.010,0.000,0.020,0.000
0.376,0.000,0.000,0.030,-0.020
0.378,0.000,0.010,0.040,-0.030
0.380,0.000,0.010,0.030,-0.030
0.382,0.000,0.000,0.020,-0.010
0.384,0.000,-0.010,0.020,0.010
0.386,0.010,-0.010,0.010,0.020
0.388,0.030,-0.010,0.000,0.030
0.390,0.040,-0.010,-0.010,0.020
0.392,0.030,0.000,-0.010,0.010
0.394,0.010,0.000,-0.010,0.030
0.396,0.010,0.000,-0.010,0.040
0.398,0.010,0.000,-0.010,0.040
0.400,0.020,0.000,-0.030,0.050
0.402,0.040,-0.010,-0.040,0.060
0.404,0.040,0.000,-0.030,0.060
0.406,0.030,0.010,-0.010,0.050
0.408,0.030,0.010,-0.010,0.050
0.410,0.030,0.000,-0.010,0.060
0.412,0.020,0.000,-0.010,0.050
0.414,0.010,0.000,0.000,0.030
0.416,0.010,0.000,0.000,0.040
0.418,0.020,0.010,0.010,0.040
0.420,0.020,0.020,0.010,0.040
0.422,0.040,0.000,0.000,0.050
0.424,0.040,-0.010,-0.010,0.050
0.426,0.040,-0.020,-0.020,0.060
0.428,0.020,-0.030,-0.030,0.060
0.430,0.000,-0.050,-0.060,0.070
0.432,-0.010,-0.070,-0.100,0.080
0.434,-0.020,-0.090,-0.140,0.100
0.436,-0.020,-0.160,-0.210,0.140
0.438,-0.030,-0.250,-0.280,0.170
0.440,-0.050,-0.310,-0.310,0.190
0.442,-0.050,-0.300,-0.310,0.210
0.444,0.000,-0.210,-0.240,0.230
0.446,0.110,-0.010,-0.090,0.210
0.448,0.270,0.280,0.100,0.180
0.450,0.520,0.660,0.320,0.220
0.452,0.870,1.120,0.560,0.340
0.454,1.320,1.640,0.830,0.480
0.456,1.800,2.210,1.120,0.620
0.458,2.310,2.810,1.450,0.760
0.460,2.830,3.430,1.790,0.880
0.462,3.350,4.050,2.130,0.980
0.464,3.860,4.600,2.440,1.090
0.466,4.290,5.020,2.650,1.190
0.468,4.590,5.270,2.740,1.290
0.470,4.730,5.350,2.750,1.330
0.472,4.710,5.250,2.690,1.300
0.474,4.440,4.920,2.540,1.160
0.476,3.880,4.370,2.320,0.900
0.478,3.170,3.680,2.050,0.580
0.480,2.480,2.990,1.770,0.300
0.482,1.870,2.370,1.470,0.110
0.484,1.370,1.820,1.180,-0.010
0.486,0.960,1.330,0.900,-0.090
0.488,0.630,0.930,0.650,-0.150
0.490,0.350,0.590,0.430,-0.190
0.492,0.120,0.280,0.230,-0.200
0.494,-0.080,0.010,0.060,-0.200
0.496,-0.250,-0.220,-0.070,-0.200
0.498,-0.390,-0.410,-0.190,-0.190
0.500,-0.490,-0.580,-0.290,-0.170
0.502,-0.600,-0.710,-0.370,-0.150
0.504,-0.680,-0.810,-0.430,-0.140
0.506,-0.730,-0.910,-0.480,-0.140
0.508,-0.770,-0.980,-0.520,-0.150
0.510,-0.820,-1.030,-0.560,-0.150
0.512,-0.860,-1.070,-0.580,-0.150
0.514,-0.880,-1.110,-0.600,-0.160
0.516,-0.900,-1.130,-0.620,-0.150
0.518,-0.910,-1.140,-0.630,-0.130
0.520,-0.900,-1.150,-0.640,-0.100
0.522,-0.880,-1.170,-0.650,-0.090
0.524,-0.870,-1.180,-0.650,-0.090
0.526,-0.870,-1.170,-0.650,-0.090
0.528,-0.870,-1.160,-0.650,-0.080
0.530,-0.860,-1.140,-0.640,-0.070
0.532,-0.850,-1.110,-0.630,-0.070
0.534,-0.830,-1.090,-0.640,-0.050
0.536,-0.810,-1.070,-0.640,-0.030
0.538,-0.790,-1.060,-0.620,-0.030
0.540,-0.760,-1.050,-0.600,-0.030
0.542,-0.740,-1.040,-0.590,-0.030
0.544,-0.740,-1.000,-0.570,-0.030
0.546,-0.740,-0.950,-0.530,-0.060
0.548,-0.730,-0.930,-0.520,-0.070
0.550,-0.700,-0.920,-0.530,-0.050
0.552,-0.680,-0.900,-0.540,-0.030
0.554,-0.670,-0.890,-0.550,0.000
0.556,-0.640,-0.880,-0.550,0.000
0.558,-0.620,-0.850,-0.550,0.000
0.560,-0.630,-0.830,-0.530,-0.010
0.562,-0.630,-0.820,-0.520,0.000
0.564,-0.600,-0.810,-0.520,0.000
0.566,-0.590,-0.810,-0.530,0.030
0.568,-0.570,-0.800,-0.530,0.060
0.570,-0.550,-0.780,-0.510,0.080
0.572,-0.530,-0.750,-0.490,0.070
0.574,-0.540,-0.710,-0.460,0.030
0.576,-0.530,-0.690,-0.450,0.020
0.578,-0.520,-0.670,-0.460,0.030
0.580,-0.500,-0.670,-0.450,0.030
0.582,-0.470,-0.670,-0.460,0.050
0.584,-0.450,-0.660,-0.470,0.070
0.586,-0.420,-0.650,-0.460,0.080
0.588,-0.420,-0.630,-0.450,0.070
0.590,-0.400,-0.620,-0.450,0.070
0.592,-0.380,-0.620,-0.450,0.080
0.594,-0.370,-0.610,-0.450,0.090
0.596,-0.360,-0.610,-0.450,0.090
0.598,-0.350,-0.610,-0.460,0.090
0.600,-0.350,-0.600,-0.470,0.100
0.602,-0.350,-0.570,-0.460,0.100
0.604,-0.350,-0.570,-0.460,0.120
0.606,-0.330,-0.570,-0.460,0.140
0.608,-0.310,-0.570,-0.470,0.150
0.610,-0.300,-0.550,-0.470,0.160
0.612,-0.300,-0.540,-0.480,0.160
0.614,-0.290,-0.530,-0.470,0.150
0.616,-0.290,-0.490,-0.460,0.140
0.618,-0.270,-0.500,-0.460,0.180
0.620,-0.240,-0.530,-0.480,0.200
0.622,-0.230,-0.550,-0.500,0.210
0.624,-0.220,-0.560,-0.520,0.220
0.626,-0.210,-0.550,-0.530,0.230
0.628,-0.200,-0.540,-0.540,0.240
0.630,-0.180,-0.510,-0.550,0.240
0.632,-0.150,-0.520,-0.570,0.260
0.634,-0.130,-0.530,-0.580,0.290
0.636,-0.120,-0.540,-0.590,0.330
0.638,-0.120,-0.540,-0.590,0.350
0.640,-0.100,-0.540,-0.600,0.360
0.642,-0.090,-0.520,-0.590,0.360
0.644,-0.110,-0.500,-0.580,0.360
0.646,-0.100,-0.490,-0.580,0.380
0.648,-0.090,-0.490,-0.580,0.410
0.650,-0.060,-0.490,-0.590,0.430
0.652,-0.040,-0.490,-0.600,0.450
0.654,-0.020,-0.490,-0.600,0.460
0.656,-0.010,-0.480,-0.600,0.450
0.658,-0.030,-0.450,-0.570,0.430
0.660,-0.040,-0.440,-0.560,0.420
0.662,-0.030,-0.440,-0.550,0.420
0.664,-0.010,-0.430,-0.560,0.420
0.666,0.000,-0.440,-0.570,0.440
0.668,0.010,-0.460,-0.580,0.460
0.670,0.020,-0.460,-0.570,0.460
0.672,0.010,-0.440,-0.560,0.450
0.674,0.000,-0.440,-0.560,0.430
0.676,0.010,-0.440,-0.550,0.420
0.678,0.000,-0.430,-0.540,0.400
0.680,0.000,-0.410,-0.520,0.400
0.682,0.000,-0.420,-0.510,0.380
0.684,-0.010,-0.420,-0.500,0.380
0.686,-0.030,-0.400,-0.470,0.350
0.688,-0.040,-0.370,-0.430,0.320
0.690,-0.050,-0.360,-0.410,0.290
0.692,-0.050,-0.360,-0.390,0.260
0.694,-0.060,-0.350,-0.340,0.210
0.696,-0.080,-0.310,-0.290,0.160
0.698,-0.100,-0.290,-0.240,0.120
0.700,-0.120,-0.270,-0.210,0.090
0.702,-0.130,-0.250,-0.180,0.070
0.704,-0.140,-0.220,-0.160,0.040
0.706,-0.150,-0.200,-0.130,0.010
0.708,-0.150,-0.200,-0.100,0.000
0.710,-0.180,-0.190,-0.060,-0.020
0.712,-0.210,-0.150,-0.010,-0.070
0.714,-0.240,-0.110,0.020,-0.130
0.716,-0.240,-0.090,0.050,-0.140
0.718,-0.230,-0.070,0.080,-0.140
0.720,-0.220,-0.060,0.100,-0.160
0.722,-0.220,-0.040,0.130,-0.190
0.724,-0.210,-0.030,0.160,-0.210
0.726,-0.210,-0.010,0.180,-0.230
0.728,-0.240,0.030,0.200,-0.270
0.730,-0.240,0.060,0.220,-0.290
0.732,-0.240,0.060,0.240,-0.280
0.734,-0.210,0.060,0.240,-0.270
0.736,-0.200,0.070,0.250,-0.260
0.738,-0.210,0.080,0.260,-0.270
0.740,-0.210,0.080,0.280,-0.290
0.742,-0.210,0.110,0.300,-0.320
0.744,-0.230,0.140,0.320,-0.350
0.746,-0.230,0.160,0.340,-0.370
0.748,-0.210,0.150,0.330,-0.360
0.750,-0.190,0.130,0.310,-0.320
0.752,-0.180,0.110,0.300,-0.290
0.754,-0.180,0.120,0.300,-0.300
0.756,-0.200,0.140,0.330,-0.330
0.758,-0.200,0.130,0.340,-0.330
0.760,-0.200,0.130,0.340,-0.320
0.762,-0.200,0.130,0.340,-0.320
0.764,-0.190,0.120,0.340,-0.330
0.766,-0.170,0.100,0.320,-0.310
0.768,-0.170,0.090,0.300,-0.280
0.770,-0.190,0.110,0.300,-0.290
0.772,-0.190,0.130,0.310,-0.290
0.774,-0.170,0.120,0.290,-0.290
0.776,-0.170,0.100,0.270,-0.270
0.778,-0.180,0.100,0.270,-0.270
0.780,-0.180,0.100,0.280,-0.280
0.782,-0.170,0.090,0.270,-0.260
0.784,-0.170,0.100,0.260,-0.260
0.786,-0.170,0.110,0.260,-0.260
0.788,-0.160,0.110,0.260,-0.270
0.790,-0.140,0.090,0.250,-0.260
0.792,-0.130,0.080,0.250,-0.240
0.794,-0.140,0.090,0.240,-0.240
0.796,-0.160,0.100,0.250,-0.250
0.798,-0.170,0.120,0.260,-0.260
0.800,-0.150,0.100,0.240,-0.230
0.802,-0.130,0.080,0.210,-0.190
0.804,-0.120,0.070,0.210,-0.190
0.806,-0.120,0.070,0.220,-0.200
0.808,-0.110,0.060,0.220,-0.190
0.810,-0.120,0.060,0.220,-0.190
0.812,-0.150,0.080,0.230,-0.220
0.814,-0.140,0.090,0.220,-0.230
0.816,-0.120,0.060,0.200,-0.210
0.818,-0.110,0.050,0.180,-0.170
0.820,-0.110,0.050,0.170,-0.150
0.822,-0.110,0.060,0.170,-0.150
0.824,-0.100,0.040,0.170,-0.150
0.826,-0.110,0.060,0.180,-0.170
0.828,-0.130,0.080,0.190,-0.200
0.830,-0.140,0.090,0.200,-0.190
0.832,-0.120,0.080,0.190,-0.170
0.834,-0.090,0.060,0.180,-0.140
0.836,-0.080,0.050,0.170,-0.110
0.838,-0.080,0.050,0.170,-0.110
0.840,-0.100,0.060,0.170,-0.130
0.842,-0.100,0.050,0.150,-0.130
0.844,-0.100,0.050,0.140,-0.130
0.846,-0.100,0.060,0.150,-0.140
0.848,-0.080,0.060,0.160,-0.130
0.850,-0.060,0.060,0.150,-0.110
0.852,-0.050,0.070,0.160,-0.090
0.854,-0.050,0.080,0.170,-0.090
0.856,-0.040,0.080,0.170,-0.090
0.858,-0.030,0.070,0.160,-0.080
0.860,-0.040,0.070,0.150,-0.080
0.862,-0.050,0.070,0.150,-0.080
0.864,-0.040,0.070,0.140,-0.080
0.866,-0.020,0.070,0.120,-0.060
0.868,-0.020,0.080,0.120,-0.060
0.870,-0.030,0.090,0.120,-0.050
0.872,-0.030,0.070,0.130,-0.050
0.874,-0.010,0.050,0.130,-0.060
0.876,0.000,0.060,0.130,-0.080
0.878,0.000,0.070,0.130,-0.090
0.880,-0.010,0.080,0.120,-0.100
0.882,0.000,0.080,0.100,-0.100
0.884,0.000,0.080,0.090,-0.080
0.886,0.010,0.070,0.080,-0.070
0.888,0.010,0.060,0.090,-0.060
0.890,0.010,0.040,0.100,-0.060
0.892,0.000,0.040,0.110,-0.070
0.894,0.000,0.060,0.110,-0.100
0.896,-0.020,0.080,0.120,-0.100
0.898,-0.020,0.080,0.120,-0.100
0.900,-0.020,0.070,0.120,-0.080
0.902,-0.020,0.080,0.130,-0.060
0.904,-0.020,0.080,0.120,-0.050
0.906,0.000,0.070,0.110,-0.050
0.908,0.000,0.070,0.100,-0.060
0.910,0.000,0.090,0.100,-0.070
0.912,-0.010,0.090,0.110,-0.080
0.914,-0.010,0.090,0.110,-0.090
0.916,-0.010,0.080,0.100,-0.070
0.918,-0.010,0.070,0.100,-0.060
0.920,0.000,0.060,0.100,-0.050
0.922,0.000,0.060,0.100,-0.050
0.924,-0.010,0.070,0.120,-0.060
0.926,-0.020,0.090,0.140,-0.070
0.928,-0.020,0.090,0.140,-0.070
0.930,-0.010,0.080,0.130,-0.070
0.932,-0.010,0.070,0.120,-0.060
0.934,-0.020,0.070,0.110,-0.040
0.936,-0.020,0.060,0.120,-0.020
0.938,-0.020,0.080,0.120,-0.040
0.940,-0.040,0.090,0.130,-0.050
0.942,-0.030,0.070,0.130,-0.050
0.944,-0.020,0.060,0.130,-0.060
0.946,-0.010,0.060,0.130,-0.060
0.948,0.000,0.070,0.110,-0.060
0.950,0.000,0.080,0.110,-0.030
0.952,0.000,0.100,0.110,-0.020
0.954,0.010,0.100,0.100,-0.020
0.956,0.010,0.090,0.080,-0.020
0.958,0.020,0.080,0.080,-0.030
0.960,0.000,0.080,0.080,-0.030
0.962,0.000,0.070,0.080,-0.030
0.964,0.000,0.060,0.080,-0.030
0.966,0.010,0.060,0.080,-0.020
0.968,0.010,0.080,0.080,-0.010
0.970,0.030,0.080,0.080,0.000
0.972,0.040,0.070,0.070,0.000
0.974,0.030,0.060,0.060,0.000
0.976,0.010,0.050,0.070,0.000
0.978,0.000,0.060,0.080,0.000
0.980,0.000,0.060,0.090,-0.020
0.982,-0.010,0.070,0.090,-0.030
0.984,-0.010,0.070,0.080,-0.020
0.986,0.000,0.060,0.060,0.000
0.988,0.020,0.050,0.060,0.000
0.990,0.030,0.040,0.050,0.010
0.992,0.030,0.030,0.040,0.000
0.994,0.010,0.040,0.050,-0.010
0.996,0.000,0.040,0.060,-0.030
0.998,0.000,0.040,0.050,-0.030
1.000,0.000,0.040,0.040,-0.020
1.002,0.000,0.030,0.020,-0.010
1.004,0.020,0.030,0.020,0.000
1.006,0.030,0.040,0.040,0.000
1.008,0.020,0.040,0.050,-0.020
1.010,0.000,0.050,0.060,-0.030
1.012,-0.010,0.050,0.060,-0.030
1.014,0.000,0.040,0.060,-0.040
1.016,0.000,0.030,0.050,-0.030
1.018,0.010,0.020,0.050,-0.010
1.020,0.000,0.020,0.050,-0.010
1.022,-0.010,0.050,0.070,-0.040
1.024,-0.020,0.050,0.070,-0.060
1.026,-0.020,0.050,0.070,-0.060
1.028,-0.030,0.050,0.080,-0.080
1.030,-0.040,0.060,0.100,-0.090
1.032,-0.030,0.060,0.120,-0.080
1.034,-0.020,0.060,0.120,-0.070
1.036,-0.030,0.060,0.120,-0.070
1.038,-0.030,0.080,0.120,-0.080
1.040,-0.030,0.080,0.110,-0.090
1.042,-0.020,0.090,0.120,-0.100
1.044,-0.020,0.080,0.130,-0.100
1.046,-0.030,0.080,0.140,-0.100
1.048,-0.020,0.080,0.140,-0.080
1.050,-0.010,0.090,0.140,-0.070
1.052,0.000,0.100,0.140,-0.070
1.054,0.010,0.090,0.150,-0.060
1.056,0.030,0.090,0.150,-0.050
1.058,0.040,0.100,0.130,-0.040
1.060,0.030,0.100,0.120,-0.040
1.062,0.020,0.110,0.100,-0.050
1.064,0.020,0.110,0.080,-0.060
1.066,0.020,0.090,0.050,-0.040
1.068,0.030,0.080,0.030,-0.010
1.070,0.020,0.070,0.030,0.000
1.072,0.010,0.070,0.030,-0.010
1.074,0.010,0.050,0.020,0.000
1.076,0.000,0.050,0.020,0.000
1.078,-0.010,0.060,0.030,-0.010
1.080,-0.020,0.060,0.040,-0.010
1.082,-0.010,0.050,0.030,0.000
1.084,0.000,0.040,0.010,0.030
1.086,0.010,0.050,0.010,0.040
1.088,0.030,0.040,0.000,0.050
1.090,0.030,0.020,0.000,0.050
1.092,0.020,0.040,0.020,0.020
1.094,0.000,0.070,0.060,0.000
1.096,0.000,0.080,0.040,0.000
1.098,0.020,0.060,0.010,0.010
1.100,0.030,0.060,0.000,0.030
1.102,0.030,0.050,0.000,0.040
1.104,0.030,0.040,0.000,0.050
1.106,0.020,0.060,0.000,0.040
1.108,0.010,0.070,0.010,0.020
1.110,0.010,0.060,0.000,0.010
1.112,0.020,0.050,0.010,0.000
1.114,0.030,0.040,0.020,0.010
1.116,0.030,0.020,0.010,0.030
1.118,0.040,0.020,-0.010,0.040
1.120,0.030,0.020,-0.030,0.040
1.122,0.020,0.010,-0.050,0.020
1.124,0.000,-0.010,-0.090,0.030
1.126,0.000,-0.050,-0.130,0.060
1.128,-0.010,-0.090,-0.180,0.080
1.130,-0.030,-0.150,-0.250,0.110
1.132,-0.040,-0.200,-0.290,0.140
1.134,-0.030,-0.180,-0.270,0.160
1.136,0.000,-0.090,-0.200,0.160
1.138,0.110,0.070,-0.080,0.160
1.140,0.270,0.310,0.100,0.170
1.142,0.480,0.620,0.300,0.200
1.144,0.770,1.030,0.510,0.270
1.146,1.150,1.490,0.750,0.370
1.148,1.580,2.010,1.010,0.480
1.150,2.050,2.570,1.310,0.580
1.152,2.530,3.110,1.630,0.700
1.154,3.020,3.660,1.950,0.810
1.156,3.450,4.160,2.230,0.880
1.158,3.790,4.530,2.430,0.940
1.160,3.990,4.730,2.530,0.970
1.162,4.060,4.780,2.540,0.970
1.164,3.990,4.640,2.450,0.930
1.166,3.680,4.260,2.260,0.820
1.168,3.140,3.670,2.010,0.610
1.170,2.510,3.040,1.750,0.370
1.172,1.940,2.460,1.490,0.150
1.174,1.470,1.940,1.230,0.010
1.176,1.060,1.510,0.980,-0.080
1.178,0.730,1.150,0.760,-0.150
1.180,0.470,0.800,0.550,-0.180
1.182,0.260,0.490,0.350,-0.180
1.184,0.080,0.230,0.180,-0.160
1.186,-0.060,0.020,0.040,-0.140
1.188,-0.180,-0.150,-0.070,-0.130
1.190,-0.290,-0.300,-0.170,-0.130
1.192,-0.400,-0.420,-0.240,-0.140
1.194,-0.490,-0.540,-0.300,-0.130
1.196,-0.560,-0.630,-0.350,-0.130
1.198,-0.600,-0.710,-0.410,-0.120
1.200,-0.630,-0.790,-0.460,-0.100
1.202,-0.660,-0.870,-0.490,-0.070
1.204,-0.680,-0.900,-0.520,-0.070
1.206,-0.710,-0.930,-0.550,-0.070
1.208,-0.730,-0.960,-0.560,-0.060
1.210,-0.740,-0.960,-0.560,-0.050
1.212,-0.740,-0.960,-0.570,-0.050
1.214,-0.730,-0.960,-0.580,-0.050
1.216,-0.720,-0.970,-0.580,-0.050
1.218,-0.720,-0.960,-0.580,-0.040
1.220,-0.720,-0.930,-0.560,-0.050
1.222,-0.720,-0.920,-0.560,-0.050
1.224,-0.690,-0.920,-0.570,-0.030
1.226,-0.690,-0.910,-0.570,-0.020
1.228,-0.690,-0.910,-0.570,-0.020
1.230,-0.670,-0.910,-0.570,-0.030
1.232,-0.640,-0.890,-0.570,-0.020
1.234,-0.620,-0.860,-0.560,-0.010
1.236,-0.590,-0.840,-0.570,0.000
1.238,-0.570,-0.820,-0.580,0.000
1.240,-0.550,-0.810,-0.570,0.000
1.242,-0.540,-0.790,-0.550,0.000
1.244,-0.540,-0.770,-0.520,0.000
1.246,-0.520,-0.740,-0.500,0.000
1.248,-0.520,-0.690,-0.490,-0.010
1.250,-0.490,-0.680,-0.490,0.000
1.252,-0.460,-0.680,-0.490,0.020
1.254,-0.430,-0.670,-0.490,0.030
1.256,-0.410,-0.650,-0.500,0.040
1.258,-0.400,-0.640,-0.490,0.040
1.260,-0.400,-0.620,-0.470,0.040
1.262,-0.410,-0.600,-0.450,0.020
1.264,-0.410,-0.590,-0.440,0.020
1.266,-0.390,-0.580,-0.450,0.040
1.268,-0.350,-0.570,-0.450,0.060
1.270,-0.330,-0.570,-0.450,0.070
1.272,-0.310,-0.570,-0.440,0.060
1.274,-0.300,-0.550,-0.430,0.050
1.276,-0.310,-0.530,-0.430,0.040
1.278,-0.320,-0.520,-0.430,0.040
1.280,-0.310,-0.510,-0.420,0.040
1.282,-0.290,-0.510,-0.410,0.060
1.284,-0.270,-0.510,-0.410,0.090
1.286,-0.250,-0.510,-0.410,0.110
1.288,-0.230,-0.500,-0.410,0.120
1.290,-0.220,-0.480,-0.420,0.110
1.292,-0.220,-0.470,-0.430,0.110
1.294,-0.230,-0.460,-0.430,0.100
1.296,-0.220,-0.470,-0.420,0.090
1.298,-0.190,-0.480,-0.420,0.100
1.300,-0.170,-0.480,-0.430,0.120
1.302,-0.150,-0.470,-0.440,0.140
1.304,-0.140,-0.450,-0.440,0.140
1.306,-0.130,-0.440,-0.450,0.130
1.308,-0.110,-0.440,-0.450,0.130
1.310,-0.110,-0.440,-0.450,0.140
1.312,-0.110,-0.440,-0.450,0.140
1.314,-0.100,-0.430,-0.470,0.150
1.316,-0.070,-0.420,-0.490,0.170
1.318,-0.070,-0.410,-0.500,0.180
1.320,-0.060,-0.410,-0.510,0.200
1.322,-0.020,-0.420,-0.520,0.220
1.324,0.000,-0.430,-0.530,0.230
1.326,0.000,-0.430,-0.540,0.240
1.328,-0.010,-0.430,-0.550,0.260
1.330,-0.010,-0.410,-0.550,0.280
1.332,0.000,-0.380,-0.540,0.290
1.334,0.000,-0.380,-0.530,0.320
1.336,0.000,-0.400,-0.540,0.340
1.338,0.020,-0.410,-0.550,0.350
1.340,0.030,-0.420,-0.560,0.360
1.342,0.040,-0.410,-0.570,0.370
1.344,0.030,-0.410,-0.570,0.360
1.346,0.040,-0.390,-0.570,0.340
1.348,0.060,-0.380,-0.560,0.340
1.350,0.080,-0.380,-0.550,0.360
1.352,0.090,-0.370,-0.550,0.380
1.354,0.110,-0.370,-0.560,0.390
1.356,0.120,-0.370,-0.550,0.390
1.358,0.110,-0.370,-0.550,0.390
1.360,0.080,-0.350,-0.540,0.370
1.362,0.070,-0.340,-0.540,0.340
1.364,0.070,-0.330,-0.530,0.330
1.366,0.070,-0.330,-0.520,0.330
1.368,0.060,-0.330,-0.520,0.340
1.370,0.070,-0.330,-0.530,0.340
1.372,0.070,-0.340,-0.520,0.320
1.374,0.050,-0.330,-0.510,0.300
1.376,0.030,-0.320,-0.480,0.280
1.378,0.020,-0.320,-0.450,0.260
1.380,0.020,-0.320,-0.420,0.240
1.382,0.000,-0.330,-0.400,0.220
1.384,0.000,-0.320,-0.380,0.210
1.386,0.000,-0.310,-0.350,0.190
1.388,-0.020,-0.280,-0.310,0.150
1.390,-0.040,-0.260,-0.280,0.110
1.392,-0.050,-0.240,-0.240,0.080
1.394,-0.060,-0.230,-0.200,0.060
1.396,-0.070,-0.210,-0.170,0.030
1.398,-0.080,-0.190,-0.140,0.010
1.400,-0.080,-0.180,-0.110,0.000
1.402,-0.100,-0.140,-0.080,-0.020
1.404,-0.120,-0.130,-0.060,-0.050
1.406,-0.130,-0.130,-0.040,-0.080
1.408,-0.130,-0.120,-0.010,-0.100
1.410,-0.140,-0.090,0.010,-0.130
1.412,-0.150,-0.070,0.040,-0.150
1.414,-0.150,-0.050,0.060,-0.170
1.416,-0.160,-0.010,0.100,-0.220
1.418,-0.180,0.000,0.130,-0.230
1.420,-0.170,0.000,0.140,-0.230
1.422,-0.170,0.000,0.150,-0.240
1.424,-0.180,0.000,0.170,-0.250
1.426,-0.200,0.020,0.200,-0.270
1.428,-0.210,0.040,0.210,-0.290
1.430,-0.210,0.080,0.220,-0.320
1.432,-0.210,0.100,0.220,-0.310
1.434,-0.190,0.090,0.230,-0.290
1.436,-0.180,0.080,0.230,-0.270
1.438,-0.180,0.070,0.240,-0.280
1.440,-0.170,0.070,0.250,-0.300
1.442,-0.170,0.070,0.260,-0.300
1.444,-0.210,0.090,0.270,-0.320
1.446,-0.210,0.100,0.280,-0.330
1.448,-0.200,0.100,0.270,-0.340
1.450,-0.180,0.100,0.260,-0.330
1.452,-0.170,0.100,0.230,-0.310
1.454,-0.160,0.100,0.230,-0.290
1.456,-0.150,0.090,0.230,-0.280
1.458,-0.170,0.110,0.230,-0.300
1.460,-0.200,0.130,0.240,-0.300
1.462,-0.210,0.120,0.230,-0.290
1.464,-0.190,0.110,0.220,-0.280
1.466,-0.170,0.090,0.220,-0.270
1.468,-0.150,0.090,0.210,-0.250
1.470,-0.130,0.070,0.200,-0.240
1.472,-0.120,0.080,0.200,-0.240
1.474,-0.130,0.080,0.190,-0.250
1.476,-0.140,0.070,0.190,-0.250
1.478,-0.140,0.070,0.190,-0.250
1.480,-0.140,0.070,0.190,-0.260
1.482,-0.130,0.050,0.180,-0.250
1.484,-0.130,0.050,0.180,-0.240
1.486,-0.120,0.060,0.160,-0.240
1.488,-0.110,0.060,0.150,-0.240
1.490,-0.090,0.050,0.150,-0.230
1.492,-0.100,0.040,0.160,-0.220
1.494,-0.110,0.040,0.170,-0.210
1.496,-0.120,0.020,0.180,-0.210
1.498,-0.120,0.010,0.180,-0.200
1.500,-0.130,0.010,0.180,-0.190
1.502,-0.140,0.020,0.170,-0.180
1.504,-0.130,0.010,0.170,-0.180
1.506,-0.120,0.000,0.170,-0.180
1.508,-0.120,0.010,0.160,-0.180
1.510,-0.120,0.010,0.150,-0.180
1.512,-0.120,0.000,0.140,-0.170
1.514,-0.120,0.020,0.140,-0.180
1.516,-0.120,0.030,0.140,-0.190
1.518,-0.110,0.030,0.140,-0.160
1.520,-0.090,0.030,0.120,-0.130
1.522,-0.080,0.020,0.110,-0.110
1.524,-0.060,0.000,0.110,-0.120
1.526,-0.070,0.000,0.130,-0.120
1.528,-0.090,0.020,0.140,-0.140
1.530,-0.090,0.030,0.150,-0.160
1.532,-0.060,0.030,0.140,-0.150
1.534,-0.050,0.040,0.120,-0.120
1.536,-0.030,0.040,0.110,-0.100
1.538,-0.010,0.040,0.110,-0.100
1.540,-0.010,0.040,0.100,-0.090
1.542,-0.010,0.050,0.100,-0.100
1.544,-0.020,0.070,0.100,-0.100
1.546,-0.030,0.070,0.100,-0.100
1.548,-0.020,0.060,0.110,-0.100
1.550,0.000,0.050,0.100,-0.090
1.552,0.000,0.040,0.080,-0.070
1.554,0.000,0.050,0.080,-0.070
1.556,-0.010,0.060,0.100,-0.090
1.558,-0.030,0.080,0.120,-0.110
1.560,-0.040,0.080,0.120,-0.100
1.562,-0.050,0.070,0.120,-0.090
1.564,-0.040,0.060,0.130,-0.090
1.566,-0.040,0.060,0.120,-0.070
1.568,-0.040,0.060,0.110,-0.060
1.570,-0.040,0.070,0.090,-0.060
1.572,-0.040,0.070,0.090,-0.060
1.574,-0.040,0.070,0.080,-0.040
1.576,-0.040,0.060,0.070,-0.040
1.578,-0.050,0.050,0.080,-0.030
1.580,-0.040,0.040,0.080,-0.050
1.582,-0.030,0.040,0.070,-0.060
1.584,-0.030,0.050,0.070,-0.080
1.586,-0.040,0.060,0.080,-0.080
1.588,-0.020,0.050,0.070,-0.050
1.590,-0.020,0.030,0.060,-0.040
1.592,-0.020,0.040,0.060,-0.040
1.594,-0.020,0.040,0.070,-0.050
1.596,-0.020,0.050,0.070,-0.040
1.598,-0.020,0.080,0.080,-0.050
1.600,-0.030,0.100,0.100,-0.040
1.602,-0.030,0.080,0.080,-0.020
1.604,-0.010,0.060,0.060,-0.010
1.606,0.000,0.040,0.050,0.000
1.608,0.000,0.030,0.050,-0.010
1.610,0.000,0.020,0.050,-0.030
1.612,-0.010,0.040,0.060,-0.060
1.614,0.000,0.060,0.060,-0.070
1.616,0.000,0.050,0.050,-0.050
1.618,0.000,0.050,0.050,-0.010
1.620,0.000,0.040,0.050,0.000
1.622,0.000,0.050,0.050,0.000
1.624,0.000,0.050,0.060,-0.010
1.626,0.000,0.070,0.070,-0.020
1.628,-0.020,0.080,0.070,-0.030
1.630,-0.020,0.080,0.080,-0.030
1.632,-0.030,0.080,0.100,-0.030
1.634,-0.020,0.080,0.100,-0.020
1.636,-0.010,0.070,0.100,-0.010
1.638,-0.010,0.070,0.090,-0.010
1.640,0.000,0.070,0.090,-0.030
1.642,-0.010,0.080,0.100,-0.060
1.644,-0.020,0.070,0.100,-0.070
1.646,-0.020,0.070,0.090,-0.070
1.648,0.000,0.070,0.080,-0.050
1.650,0.000,0.070,0.070,-0.030
1.652,0.000,0.050,0.050,-0.010
1.654,0.000,0.060,0.040,-0.020
1.656,-0.010,0.070,0.050,-0.040
1.658,-0.010,0.070,0.060,-0.040
1.660,-0.020,0.070,0.060,-0.050
1.662,-0.020,0.060,0.060,-0.050
1.664,-0.030,0.060,0.060,-0.040
1.666,-0.020,0.060,0.070,-0.020
1.668,-0.010,0.070,0.060,-0.010
1.670,-0.010,0.070,0.060,-0.010
1.672,0.000,0.070,0.050,-0.010
1.674,0.000,0.050,0.050,-0.010
1.676,0.000,0.050,0.040,-0.020
1.678,-0.010,0.050,0.040,-0.030
1.680,-0.010,0.050,0.050,-0.040
1.682,-0.020,0.060,0.060,-0.050
1.684,-0.040,0.070,0.080,-0.070
1.686,-0.030,0.070,0.090,-0.050
1.688,-0.010,0.060,0.090,-0.040
1.690,-0.010,0.050,0.080,-0.040
1.692,-0.020,0.050,0.090,-0.050
1.694,-0.020,0.040,0.100,-0.060
1.696,-0.020,0.040,0.110,-0.090
1.698,-0.030,0.020,0.120,-0.100
1.700,-0.030,0.010,0.110,-0.090
1.702,-0.030,0.000,0.090,-0.070
1.704,-0.030,0.000,0.080,-0.060
1.706,-0.030,0.000,0.070,-0.060
1.708,-0.050,-0.010,0.080,-0.070
1.710,-0.060,0.000,0.090,-0.100
1.712,-0.070,0.010,0.100,-0.110
1.714,-0.070,0.020,0.100,-0.120
1.716,-0.070,0.030,0.100,-0.120
1.718,-0.050,0.040,0.100,-0.090
1.720,-0.040,0.040,0.090,-0.070
1.722,-0.030,0.040,0.100,-0.060
1.724,-0.040,0.060,0.110,-0.090
1.726,-0.070,0.100,0.140,-0.120
1.728,-0.070,0.110,0.150,-0.130
1.730,-0.060,0.110,0.140,-0.120
1.732,-0.040,0.100,0.120,-0.090
1.734,-0.020,0.090,0.100,-0.050
1.736,0.000,0.090,0.100,-0.030
1.738,0.000,0.100,0.100,-0.050
1.740,0.000,0.130,0.120,-0.070
1.742,-0.010,0.120,0.110,-0.070
1.744,-0.020,0.110,0.110,-0.070
1.746,-0.010,0.090,0.100,-0.070
1.748,0.000,0.090,0.080,-0.050
1.750,0.000,0.080,0.060,-0.040
1.752,0.000,0.070,0.050,-0.020
1.754,0.000,0.070,0.050,-0.020
1.756,0.000,0.040,0.040,-0.010
1.758,0.000,0.030,0.050,0.000
1.760,-0.010,0.020,0.050,0.000
1.762,-0.010,0.010,0.050,-0.010
1.764,0.000,0.010,0.050,-0.010
1.766,-0.010,0.010,0.040,0.000
1.768,-0.010,0.020,0.020,0.000
1.770,0.000,0.000,0.010,0.020
1.772,0.010,0.000,0.000,0.030
1.774,0.010,0.010,0.000,0.030
1.776,0.010,0.000,0.010,0.030
1.778,0.020,0.000,0.020,0.030
1.780,0.030,0.010,0.020,0.030
1.782,0.030,0.020,0.030,0.020
1.784,0.040,0.010,0.030,0.040
1.786,0.050,0.010,0.030,0.050
1.788,0.050,0.000,0.020,0.050
1.790,0.060,0.000,0.000,0.050
1.792,0.050,0.000,0.000,0.040
1.794,0.030,0.000,0.000,0.020
1.796,0.020,0.020,0.000,0.010
1.798,0.010,0.010,0.000,0.010
1.800,0.010,0.000,0.000,0.030
1.802,0.020,0.000,-0.010,0.060
1.804,0.020,-0.020,-0.040,0.070
1.806,0.020,-0.040,-0.060,0.070
1.808,0.010,-0.050,-0.070,0.050
1.810,-0.030,-0.050,-0.080,0.020
1.812,-0.050,-0.100,-0.140,0.030
1.814,-0.070,-0.170,-0.200,0.070
1.816,-0.080,-0.240,-0.250,0.110
1.818,-0.080,-0.250,-0.260,0.140
1.820,-0.040,-0.210,-0.240,0.160
1.822,0.050,-0.040,-0.140,0.170
1.824,0.200,0.210,0.030,0.170
1.826,0.410,0.550,0.270,0.180
1.828,0.710,0.990,0.530,0.240
1.830,1.110,1.500,0.800,0.350
1.832,1.570,2.050,1.080,0.500
1.834,2.070,2.610,1.370,0.650
1.836,2.580,3.200,1.690,0.780
1.838,3.090,3.800,2.020,0.880
1.840,3.600,4.380,2.330,0.980
1.842,4.050,4.890,2.600,1.060
1.844,4.400,5.260,2.780,1.130
1.846,4.620,5.450,2.880,1.170
1.848,4.700,5.480,2.900,1.170
1.850,4.630,5.340,2.810,1.120
1.852,4.320,4.990,2.610,0.980
1.854,3.780,4.400,2.340,0.750
1.856,3.100,3.680,2.020,0.500
1.858,2.430,2.950,1.680,0.290
1.860,1.840,2.310,1.360,0.120
1.862,1.350,1.770,1.070,0.000
1.864,0.950,1.300,0.790,-0.060
1.866,0.620,0.880,0.520,-0.080
1.868,0.350,0.500,0.310,-0.070
1.870,0.110,0.190,0.130,-0.100
1.872,-0.090,-0.070,-0.020,-0.130
1.874,-0.250,-0.310,-0.160,-0.140
1.876,-0.400,-0.510,-0.260,-0.130
1.878,-0.530,-0.640,-0.340,-0.160
1.880,-0.630,-0.730,-0.410,-0.190
1.882,-0.700,-0.850,-0.480,-0.180
1.884,-0.760,-0.950,-0.530,-0.150
1.886,-0.810,-1.010,-0.560,-0.130
1.888,-0.860,-1.070,-0.590,-0.130
1.890,-0.870,-1.110,-0.620,-0.140
1.892,-0.880,-1.140,-0.640,-0.140
1.894,-0.900,-1.140,-0.650,-0.180
1.896,-0.920,-1.150,-0.640,-0.200
1.898,-0.920,-1.170,-0.660,-0.170
1.900,-0.910,-1.200,-0.690,-0.130
1.902,-0.900,-1.200,-0.700,-0.100
1.904,-0.900,-1.190,-0.700,-0.090
1.906,-0.890,-1.190,-0.690,-0.090
1.908,-0.880,-1.180,-0.690,-0.090
1.910,-0.890,-1.170,-0.680,-0.090
1.912,-0.890,-1.140,-0.680,-0.090
1.914,-0.870,-1.120,-0.670,-0.090
1.916,-0.840,-1.110,-0.680,-0.070
1.918,-0.810,-1.090,-0.670,-0.040
1.920,-0.790,-1.060,-0.660,-0.040
1.922,-0.790,-1.020,-0.640,-0.080
1.924,-0.780,-1.010,-0.640,-0.070
1.926,-0.750,-0.990,-0.640,-0.060
1.928,-0.740,-0.960,-0.630,-0.060
1.930,-0.730,-0.930,-0.620,-0.060
1.932,-0.690,-0.920,-0.620,-0.030
1.934,-0.660,-0.910,-0.620,-0.010
1.936,-0.660,-0.880,-0.610,-0.020
1.938,-0.660,-0.860,-0.600,-0.030
1.940,-0.640,-0.850,-0.590,-0.010
1.942,-0.610,-0.850,-0.590,0.000
1.944,-0.600,-0.820,-0.570,0.000
1.946,-0.600,-0.800,-0.550,-0.010
1.948,-0.580,-0.780,-0.540,-0.010
1.950,-0.550,-0.770,-0.540,-0.010
1.952,-0.530,-0.760,-0.550,0.000
1.954,-0.520,-0.750,-0.550,0.000
1.956,-0.490,-0.730,-0.540,0.010
1.958,-0.480,-0.730,-0.530,0.020
1.960,-0.470,-0.710,-0.510,0.030
1.962,-0.480,-0.680,-0.490,0.020
1.964,-0.480,-0.650,-0.480,0.010
1.966,-0.450,-0.660,-0.480,0.030
1.968,-0.430,-0.670,-0.490,0.060
1.970,-0.420,-0.660,-0.490,0.070
1.972,-0.410,-0.640,-0.470,0.070
1.974,-0.390,-0.640,-0.480,0.090
1.976,-0.380,-0.630,-0.480,0.110
1.978,-0.400,-0.600,-0.450,0.070
1.980,-0.410,-0.570,-0.430,0.040
1.982,-0.370,-0.570,-0.450,0.060
1.984,-0.340,-0.580,-0.460,0.100
1.986,-0.320,-0.570,-0.460,0.130
1.988,-0.320,-0.570,-0.470,0.130
1.990,-0.300,-0.580,-0.480,0.130
1.992,-0.300,-0.560,-0.480,0.120
1.994,-0.300,-0.540,-0.480,0.120
1.996,-0.290,-0.540,-0.470,0.120
1.998,-0.260,-0.550,-0.480,0.140
2.000,-0.240,-0.550,-0.510,0.180
2.002,-0.230,-0.560,-0.540,0.210
2.004,-0.220,-0.550,-0.550,0.220
2.006,-0.220,-0.530,-0.550,0.200
2.008,-0.200,-0.550,-0.560,0.220
2.010,-0.190,-0.560,-0.570,0.240
2.012,-0.180,-0.550,-0.580,0.240
2.014,-0.170,-0.550,-0.580,0.250
2.016,-0.150,-0.570,-0.600,0.290
2.018,-0.130,-0.570,-0.610,0.330
2.020,-0.120,-0.560,-0.610,0.330
2.022,-0.110,-0.550,-0.620,0.340
2.024,-0.090,-0.560,-0.640,0.360
2.026,-0.080,-0.550,-0.640,0.380
2.028,-0.070,-0.550,-0.640,0.380
2.030,-0.050,-0.540,-0.640,0.390
2.032,-0.010,-0.540,-0.640,0.410
2.034,0.000,-0.520,-0.650,0.420
2.036,0.000,-0.510,-0.650,0.420
2.038,0.000,-0.510,-0.660,0.440
2.040,0.030,-0.510,-0.660,0.460
2.042,0.020,-0.510,-0.650,0.460
2.044,0.000,-0.490,-0.630,0.450
2.046,0.000,-0.470,-0.620,0.430
2.048,-0.010,-0.450,-0.610,0.420
2.050,0.000,-0.440,-0.600,0.440
2.052,0.000,-0.440,-0.580,0.450
2.054,0.000,-0.440,-0.560,0.440
2.056,0.010,-0.440,-0.550,0.430
2.058,0.010,-0.440,-0.540,0.420
2.060,0.000,-0.420,-0.510,0.390
2.062,-0.030,-0.380,-0.480,0.340
2.064,-0.040,-0.360,-0.460,0.300
2.066,-0.040,-0.360,-0.440,0.280
2.068,-0.040,-0.350,-0.430,0.290
2.070,-0.040,-0.350,-0.410,0.280
2.072,-0.040,-0.340,-0.380,0.250
2.074,-0.050,-0.320,-0.340,0.200
2.076,-0.080,-0.270,-0.290,0.140
2.078,-0.100,-0.240,-0.260,0.090
2.080,-0.120,-0.220,-0.220,0.060
2.082,-0.130,-0.210,-0.180,0.040
2.084,-0.110,-0.200,-0.150,0.020
2.086,-0.100,-0.180,-0.120,0.010
2.088,-0.110,-0.170,-0.080,-0.020
2.090,-0.130,-0.130,-0.040,-0.070
2.092,-0.160,-0.100,-0.010,-0.110
2.094,-0.170,-0.070,0.020,-0.130
2.096,-0.180,-0.060,0.050,-0.150
2.098,-0.180,-0.030,0.080,-0.170
2.100,-0.180,-0.020,0.110,-0.180
2.102,-0.160,0.000,0.130,-0.190
2.104,-0.170,0.040,0.150,-0.230
2.106,-0.180,0.060,0.190,-0.260
2.108,-0.180,0.070,0.220,-0.270
2.110,-0.190,0.080,0.240,-0.270
2.112,-0.190,0.080,0.260,-0.280
2.114,-0.180,0.080,0.280,-0.300
2.116,-0.180,0.090,0.290,-0.290
2.118,-0.190,0.110,0.310,-0.320
2.120,-0.190,0.120,0.320,-0.340
2.122,-0.170,0.120,0.320,-0.330
2.124,-0.160,0.110,0.310,-0.330
2.126,-0.160,0.100,0.310,-0.320
2.128,-0.170,0.110,0.320,-0.320
2.130,-0.170,0.120,0.330,-0.310
2.132,-0.170,0.140,0.340,-0.300
2.134,-0.170,0.140,0.330,-0.290
2.136,-0.150,0.130,0.320,-0.280
2.138,-0.130,0.130,0.310,-0.280
2.140,-0.120,0.120,0.300,-0.280
2.142,-0.130,0.120,0.300,-0.280
2.144,-0.140,0.110,0.310,-0.290
2.146,-0.150,0.130,0.310,-0.310
2.148,-0.150,0.130,0.300,-0.310
2.150,-0.140,0.120,0.290,-0.290
2.152,-0.140,0.110,0.290,-0.270
2.154,-0.140,0.100,0.280,-0.260
2.156,-0.140,0.090,0.270,-0.260
2.158,-0.150,0.080,0.260,-0.260
2.160,-0.170,0.070,0.260,-0.300
2.162,-0.180,0.080,0.270,-0.320
2.164,-0.170,0.070,0.260,-0.310
2.166,-0.140,0.060,0.240,-0.290
2.168,-0.140,0.060,0.240,-0.260
2.170,-0.130,0.060,0.240,-0.230
2.172,-0.120,0.060,0.230,-0.230
2.174,-0.140,0.070,0.230,-0.240
2.176,-0.160,0.090,0.230,-0.250
2.178,-0.160,0.090,0.220,-0.250
2.180,-0.140,0.080,0.220,-0.250
2.182,-0.130,0.060,0.220,-0.240
2.184,-0.130,0.060,0.220,-0.230
2.186,-0.110,0.060,0.200,-0.210
2.188,-0.100,0.070,0.190,-0.210
2.190,-0.110,0.080,0.190,-0.220
2.192,-0.110,0.070,0.180,-0.210
2.194,-0.120,0.060,0.190,-0.200
2.196,-0.120,0.060,0.190,-0.210
2.198,-0.100,0.050,0.180,-0.210
2.200,-0.090,0.050,0.190,-0.190
2.202,-0.100,0.080,0.200,-0.190
2.204,-0.100,0.100,0.210,-0.190
2.206,-0.080,0.090,0.200,-0.190
2.208,-0.080,0.070,0.190,-0.190
2.210,-0.090,0.050,0.190,-0.200
2.212,-0.090,0.050,0.190,-0.200
2.214,-0.090,0.060,0.180,-0.200
2.216,-0.090,0.060,0.160,-0.190
2.218,-0.080,0.050,0.150,-0.160
2.220,-0.060,0.030,0.140,-0.140
2.222,-0.050,0.020,0.130,-0.150
2.224,-0.040,0.010,0.130,-0.150
2.226,-0.040,0.010,0.130,-0.140
2.228,-0.050,0.020,0.130,-0.130
2.230,-0.050,0.040,0.140,-0.140
2.232,-0.050,0.060,0.130,-0.120
2.234,-0.040,0.060,0.130,-0.100
2.236,-0.020,0.060,0.120,-0.080
2.238,-0.010,0.050,0.110,-0.070
2.240,-0.020,0.040,0.110,-0.080
2.242,-0.030,0.040,0.120,-0.100
2.244,-0.030,0.050,0.130,-0.120
2.246,-0.030,0.060,0.150,-0.140
2.248,-0.010,0.050,0.140,-0.130
2.250,-0.010,0.060,0.120,-0.100
2.252,-0.010,0.050,0.110,-0.070
2.254,0.000,0.050,0.110,-0.050
2.256,0.000,0.050,0.110,-0.040
2.258,0.000,0.060,0.110,-0.050
2.260,-0.030,0.060,0.110,-0.070
2.262,-0.040,0.060,0.120,-0.070
2.264,-0.030,0.050,0.120,-0.070
2.266,-0.020,0.040,0.110,-0.050
2.268,-0.020,0.030,0.110,-0.030
2.270,-0.010,0.030,0.100,-0.020
2.272,-0.010,0.050,0.100,-0.030
2.274,-0.010,0.070,0.090,-0.050
2.276,-0.020,0.070,0.080,-0.050
2.278,-0.030,0.070,0.090,-0.050
2.280,-0.030,0.070,0.090,-0.040
2.282,-0.010,0.060,0.090,-0.030
2.284,0.000,0.060,0.080,-0.020
2.286,0.000,0.070,0.080,-0.030
2.288,-0.010,0.080,0.090,-0.050
2.290,-0.020,0.070,0.100,-0.050
2.292,-0.020,0.050,0.090,-0.040
2.294,-0.030,0.040,0.090,-0.040
2.296,-0.030,0.040,0.090,-0.030
2.298,-0.010,0.040,0.080,-0.020
2.300,-0.010,0.050,0.060,-0.010
2.302,-0.010,0.050,0.060,0.000
2.304,0.000,0.040,0.050,0.000
2.306,0.000,0.030,0.050,-0.010
2.308,0.000,0.030,0.070,-0.010
2.310,0.000,0.040,0.080,-0.020
2.312,0.000,0.040,0.080,-0.020
2.314,0.000,0.050,0.080,-0.030
2.316,-0.010,0.060,0.080,-0.040
2.318,0.000,0.060,0.080,-0.020
2.320,0.000,0.050,0.080,-0.010
2.322,0.010,0.050,0.070,0.000
2.324,0.010,0.050,0.060,0.000
2.326,0.000,0.050,0.060,0.000
2.328,-0.010,0.070,0.070,-0.030
2.330,-0.030,0.080,0.090,-0.070
2.332,-0.030,0.070,0.080,-0.070
2.334,0.000,0.060,0.070,-0.050
2.336,0.010,0.060,0.070,-0.030
2.338,0.020,0.060,0.060,-0.020
2.340,0.010,0.050,0.050,-0.010
2.342,0.000,0.060,0.060,-0.010
2.344,-0.010,0.080,0.060,-0.020
2.346,-0.020,0.080,0.060,-0.030
2.348,-0.030,0.060,0.040,-0.030
2.350,-0.020,0.050,0.030,-0.020
2.352,0.000,0.040,0.020,0.000
2.354,0.000,0.030,0.020,0.000
2.356,0.000,0.040,0.020,-0.010
2.358,0.000,0.060,0.040,-0.040
2.360,-0.010,0.070,0.040,-0.040
2.362,-0.010,0.070,0.040,-0.040
2.364,-0.020,0.060,0.040,-0.050
2.366,-0.010,0.050,0.030,-0.040
2.368,0.000,0.040,0.030,-0.010
2.370,-0.010,0.040,0.030,-0.010
2.372,-0.010,0.040,0.030,-0.030
2.374,-0.010,0.030,0.030,-0.030
2.376,0.000,0.030,0.050,-0.040
2.378,0.000,0.010,0.060,-0.050
2.380,-0.010,0.000,0.080,-0.060
2.382,-0.020,0.000,0.070,-0.050
2.384,-0.020,0.000,0.070,-0.040
2.386,-0.020,0.000,0.060,-0.040
2.388,-0.010,0.000,0.050,-0.040
2.390,-0.010,-0.010,0.050,-0.040
2.392,-0.020,0.000,0.060,-0.040
2.394,-0.030,0.000,0.080,-0.050
2.396,-0.020,0.000,0.080,-0.050
2.398,-0.020,0.010,0.080,-0.060
2.400,-0.030,0.040,0.100,-0.070
2.402,-0.010,0.050,0.090,-0.060
2.404,0.000,0.040,0.090,-0.050
2.406,0.010,0.040,0.080,-0.050
2.408,0.010,0.050,0.070,-0.060
2.410,0.000,0.040,0.070,-0.070
2.412,0.000,0.050,0.080,-0.070
2.414,0.000,0.070,0.080,-0.080
2.416,0.000,0.070,0.080,-0.070
2.418,0.010,0.050,0.080,-0.030
2.420,0.020,0.040,0.070,-0.010
2.422,0.020,0.040,0.060,0.000
2.424,0.020,0.030,0.050,0.000
2.426,0.000,0.050,0.060,-0.030
2.428,-0.010,0.060,0.080,-0.050
2.430,0.000,0.040,0.080,-0.050
2.432,0.010,0.020,0.060,-0.010
2.434,0.020,0.000,0.030,0.000
2.436,0.020,0.000,0.010,0.020
2.438,0.030,0.000,0.000,0.020
2.440,0.030,-0.010,-0.010,0.020
2.442,0.010,0.000,0.000,0.000
2.444,0.000,0.000,0.000,0.010
2.446,0.000,-0.010,-0.010,0.010
2.448,0.000,-0.020,-0.020,0.020
2.450,0.010,-0.030,-0.030,0.040
2.452,0.020,-0.040,-0.030,0.060
2.454,0.030,-0.040,-0.020,0.050
2.456,0.020,-0.020,-0.030,0.040
2.458,0.020,-0.010,-0.030,0.050
2.460,0.020,-0.010,-0.030,0.060
2.462,0.020,-0.010,-0.040,0.060
2.464,0.030,-0.010,-0.050,0.080
2.466,0.060,-0.010,-0.060,0.090
2.468,0.070,-0.010,-0.060,0.100
2.470,0.070,0.000,-0.050,0.100
2.472,0.070,0.000,-0.060,0.100
2.474,0.070,0.000,-0.060,0.090
2.476,0.060,0.000,-0.060,0.080
2.478,0.050,0.000,-0.060,0.080
2.480,0.050,0.000,-0.050,0.070
2.482,0.040,-0.010,-0.040,0.070
2.484,0.020,0.000,-0.020,0.050
2.486,0.010,0.000,-0.030,0.050
2.488,0.010,-0.040,-0.080,0.060
2.490,0.000,-0.100,-0.140,0.080
2.492,0.000,-0.150,-0.210,0.110
2.494,-0.030,-0.230,-0.270,0.130
2.496,-0.040,-0.280,-0.310,0.130
2.498,-0.040,-0.260,-0.290,0.120
2.500,0.010,-0.160,-0.210,0.140
2.502,0.140,0.020,-0.080,0.170
2.504,0.320,0.300,0.120,0.180
2.506,0.560,0.670,0.370,0.200
2.508,0.890,1.130,0.630,0.270
2.510,1.300,1.660,0.890,0.380
2.512,1.760,2.230,1.170,0.500
2.514,2.270,2.820,1.470,0.660
2.516,2.800,3.420,1.790,0.810
2.518,3.350,4.020,2.130,0.950
2.520,3.880,4.600,2.450,1.070
2.522,4.340,5.090,2.700,1.160
2.524,4.660,5.420,2.860,1.230
2.526,4.830,5.590,2.940,1.240
2.528,4.870,5.590,2.950,1.220
2.530,4.740,5.400,2.860,1.150
2.532,4.360,4.940,2.650,1.020
2.534,3.750,4.270,2.360,0.800
2.536,3.030,3.520,2.010,0.540
2.538,2.350,2.800,1.660,0.310
2.540,1.760,2.180,1.310,0.140
2.542,1.270,1.600,0.990,0.050
2.544,0.860,1.110,0.710,-0.020
2.546,0.510,0.700,0.470,-0.060
2.548,0.230,0.340,0.250,-0.090
2.550,0.000,0.030,0.050,-0.100
2.552,-0.190,-0.220,-0.090,-0.100
2.554,-0.360,-0.430,-0.220,-0.110
2.556,-0.490,-0.630,-0.330,-0.110
2.558,-0.600,-0.780,-0.420,-0.100
2.560,-0.700,-0.900,-0.500,-0.100
2.562,-0.790,-1.000,-0.570,-0.100
2.564,-0.850,-1.090,-0.620,-0.080
2.566,-0.880,-1.170,-0.670,-0.060
2.568,-0.920,-1.200,-0.720,-0.050
2.570,-0.930,-1.240,-0.750,-0.030
2.572,-0.940,-1.260,-0.770,-0.020
2.574,-0.960,-1.280,-0.770,-0.020
2.576,-0.990,-1.290,-0.780,-0.030
2.578,-1.000,-1.290,-0.780,-0.040
2.580,-0.990,-1.300,-0.800,-0.050
2.582,-0.970,-1.280,-0.810,-0.050
2.584,-0.960,-1.270,-0.810,-0.030
2.586,-0.950,-1.270,-0.810,-0.010
2.588,-0.920,-1.270,-0.820,-0.010
2.590,-0.900,-1.260,-0.810,-0.010
2.592,-0.890,-1.240,-0.810,0.000
2.594,-0.880,-1.210,-0.790,0.000
2.596,-0.870,-1.160,-0.770,0.000
2.598,-0.850,-1.150,-0.760,0.000
2.600,-0.820,-1.150,-0.760,0.010
2.602,-0.780,-1.150,-0.750,0.030
2.604,-0.750,-1.140,-0.750,0.040
2.606,-0.730,-1.120,-0.740,0.040
2.608,-0.730,-1.100,-0.720,0.030
2.610,-0.740,-1.070,-0.700,0.000
2.612,-0.740,-1.060,-0.690,0.000
2.614,-0.710,-1.050,-0.680,0.010
2.616,-0.680,-1.040,-0.670,0.040
2.618,-0.660,-1.030,-0.670,0.060
2.620,-0.640,-1.020,-0.680,0.060
2.622,-0.620,-1.010,-0.670,0.060
2.624,-0.640,-0.960,-0.630,0.030
2.626,-0.640,-0.930,-0.600,0.020
2.628,-0.640,-0.930,-0.590,0.020
2.630,-0.620,-0.920,-0.580,0.030
2.632,-0.610,-0.910,-0.580,0.050
2.634,-0.590,-0.900,-0.580,0.080
2.636,-0.570,-0.890,-0.590,0.100
2.638,-0.550,-0.870,-0.580,0.100
2.640,-0.530,-0.850,-0.570,0.090
2.642,-0.520,-0.840,-0.570,0.070
2.644,-0.510,-0.830,-0.570,0.060
2.646,-0.500,-0.820,-0.570,0.070
2.648,-0.480,-0.820,-0.570,0.100
2.650,-0.460,-0.800,-0.580,0.120
2.652,-0.460,-0.770,-0.580,0.120
2.654,-0.450,-0.760,-0.580,0.130
2.656,-0.430,-0.750,-0.580,0.120
2.658,-0.410,-0.750,-0.570,0.130
2.660,-0.400,-0.740,-0.550,0.130
2.662,-0.380,-0.720,-0.550,0.120
2.664,-0.350,-0.700,-0.550,0.140
2.666,-0.330,-0.690,-0.560,0.160
2.668,-0.310,-0.670,-0.560,0.190
2.670,-0.310,-0.670,-0.580,0.210
2.672,-0.300,-0.670,-0.570,0.210
2.674,-0.290,-0.660,-0.560,0.210
2.676,-0.290,-0.650,-0.560,0.200
2.678,-0.290,-0.640,-0.570,0.200
2.680,-0.280,-0.610,-0.570,0.200
2.682,-0.270,-0.610,-0.570,0.230
2.684,-0.250,-0.620,-0.580,0.260
2.686,-0.220,-0.620,-0.600,0.300
2.688,-0.170,-0.630,-0.620,0.320
2.690,-0.150,-0.640,-0.630,0.340
2.692,-0.150,-0.640,-0.630,0.360
2.694,-0.150,-0.630,-0.630,0.350
2.696,-0.150,-0.610,-0.620,0.340
2.698,-0.120,-0.610,-0.630,0.360
2.700,-0.090,-0.600,-0.650,0.390
2.702,-0.060,-0.600,-0.680,0.430
2.704,-0.030,-0.590,-0.700,0.440
2.706,-0.020,-0.590,-0.720,0.440
2.708,-0.020,-0.570,-0.720,0.430
2.710,-0.010,-0.570,-0.730,0.430
2.712,0.000,-0.560,-0.730,0.440
2.714,0.000,-0.560,-0.730,0.460
2.716,0.010,-0.560,-0.740,0.480
2.718,0.020,-0.550,-0.740,0.500
2.720,0.030,-0.540,-0.740,0.510
2.722,0.030,-0.530,-0.730,0.490
2.724,0.010,-0.510,-0.730,0.480
2.726,0.000,-0.510,-0.710,0.460
2.728,0.000,-0.520,-0.700,0.450
2.730,0.000,-0.520,-0.680,0.450
2.732,0.000,-0.520,-0.660,0.460
2.734,0.000,-0.520,-0.650,0.450
2.736,0.010,-0.510,-0.640,0.430
2.738,0.010,-0.500,-0.620,0.410
2.740,0.010,-0.490,-0.590,0.400
2.742,0.000,-0.460,-0.560,0.380
2.744,-0.020,-0.440,-0.530,0.350
2.746,-0.030,-0.430,-0.520,0.320
2.748,-0.050,-0.420,-0.490,0.290
2.750,-0.080,-0.400,-0.440,0.240
2.752,-0.100,-0.370,-0.390,0.200
2.754,-0.100,-0.360,-0.350,0.160
2.756,-0.100,-0.330,-0.310,0.110
2.758,-0.120,-0.310,-0.280,0.080
2.760,-0.130,-0.280,-0.230,0.030
2.762,-0.140,-0.250,-0.190,0.000
2.764,-0.160,-0.220,-0.150,-0.030
2.766,-0.160,-0.200,-0.120,-0.060
2.768,-0.160,-0.180,-0.090,-0.070
2.770,-0.170,-0.170,-0.050,-0.080
2.772,-0.190,-0.150,-0.010,-0.100
2.774,-0.210,-0.130,0.010,-0.120
2.776,-0.220,-0.100,0.050,-0.140
2.778,-0.240,-0.060,0.080,-0.170
2.780,-0.250,-0.030,0.100,-0.210
2.782,-0.240,-0.010,0.130,-0.220
2.784,-0.230,0.000,0.150,-0.220
2.786,-0.220,0.020,0.170,-0.220
2.788,-0.210,0.020,0.190,-0.230
2.790,-0.210,0.010,0.210,-0.240
2.792,-0.210,0.040,0.230,-0.270
2.794,-0.230,0.070,0.250,-0.300
2.796,-0.220,0.080,0.250,-0.310
2.798,-0.200,0.090,0.260,-0.310
2.800,-0.200,0.080,0.270,-0.300
2.802,-0.200,0.090,0.270,-0.280
2.804,-0.190,0.090,0.260,-0.280
2.806,-0.200,0.110,0.270,-0.290
2.808,-0.210,0.120,0.280,-0.310
2.810,-0.220,0.120,0.290,-0.310
2.812,-0.220,0.120,0.290,-0.320
2.814,-0.210,0.120,0.280,-0.320
2.816,-0.200,0.110,0.270,-0.300
2.818,-0.180,0.110,0.260,-0.270
2.820,-0.180,0.110,0.250,-0.250
2.822,-0.180,0.120,0.250,-0.270
2.824,-0.180,0.100,0.260,-0.260
2.826,-0.180,0.090,0.250,-0.260
2.828,-0.180,0.090,0.240,-0.260
2.830,-0.180,0.090,0.230,-0.270
2.832,-0.170,0.100,0.220,-0.260
2.834,-0.180,0.110,0.230,-0.250
2.836,-0.180,0.130,0.240,-0.260
2.838,-0.170,0.110,0.240,-0.250
2.840,-0.160,0.100,0.220,-0.240
2.842,-0.160,0.100,0.220,-0.230
2.844,-0.160,0.090,0.220,-0.230
2.846,-0.160,0.090,0.220,-0.230
2.848,-0.160,0.100,0.210,-0.230
2.850,-0.150,0.110,0.200,-0.220
2.852,-0.130,0.100,0.190,-0.190
2.854,-0.110,0.090,0.180,-0.180
2.856,-0.100,0.070,0.160,-0.170
2.858,-0.100,0.070,0.150,-0.170
2.860,-0.110,0.070,0.150,-0.180
2.862,-0.100,0.080,0.140,-0.190
2.864,-0.110,0.080,0.130,-0.190
2.866,-0.110,0.070,0.130,-0.180
2.868,-0.110,0.060,0.120,-0.150
2.870,-0.090,0.040,0.120,-0.130
2.872,-0.080,0.030,0.120,-0.130
2.874,-0.090,0.030,0.130,-0.130
2.876,-0.110,0.040,0.150,-0.150
2.878,-0.120,0.060,0.160,-0.170
2.880,-0.110,0.060,0.150,-0.170
2.882,-0.090,0.060,0.130,-0.170
2.884,-0.090,0.040,0.130,-0.140
2.886,-0.080,0.030,0.130,-0.120
2.888,-0.080,0.020,0.120,-0.110
2.890,-0.080,0.020,0.120,-0.120
2.892,-0.080,0.050,0.130,-0.120
2.894,-0.080,0.050,0.130,-0.120
2.896,-0.060,0.060,0.130,-0.110
2.898,-0.050,0.060,0.120,-0.100
2.900,-0.050,0.060,0.100,-0.080
2.902,-0.050,0.050,0.090,-0.060
2.904,-0.050,0.080,0.110,-0.080
2.906,-0.050,0.100,0.130,-0.090
2.908,-0.040,0.100,0.140,-0.080
2.910,-0.050,0.090,0.140,-0.080
2.912,-0.040,0.070,0.130,-0.090
2.914,-0.020,0.070,0.110,-0.090
2.916,0.000,0.060,0.100,-0.080
2.918,-0.010,0.080,0.090,-0.070
2.920,-0.010,0.090,0.070,-0.070
2.922,-0.010,0.080,0.070,-0.060
2.924,-0.020,0.060,0.080,-0.050
2.926,-0.030,0.070,0.090,-0.060
2.928,-0.040,0.080,0.100,-0.060
2.930,-0.040,0.080,0.090,-0.070
2.932,-0.030,0.090,0.090,-0.080
2.934,-0.020,0.090,0.090,-0.060
2.936,0.000,0.080,0.070,-0.030
2.938,0.000,0.070,0.070,-0.020
2.940,0.010,0.050,0.070,-0.020
2.942,0.000,0.050,0.060,-0.020
2.944,0.000,0.050,0.070,-0.020
2.946,-0.010,0.060,0.070,-0.030
2.948,-0.010,0.070,0.070,-0.050
2.950,0.000,0.050,0.070,-0.030
2.952,0.000,0.040,0.050,0.000
2.954,0.020,0.040,0.050,0.010
2.956,0.020,0.040,0.050,0.010
2.958,0.010,0.050,0.050,0.010
2.960,0.000,0.060,0.050,0.000
2.962,0.000,0.080,0.060,-0.040
2.964,0.000,0.070,0.080,-0.050
2.966,0.010,0.050,0.080,-0.030
2.968,0.010,0.040,0.080,-0.010
2.970,0.020,0.040,0.070,0.000
2.972,0.030,0.040,0.060,0.000
2.974,0.010,0.050,0.060,0.000
2.976,-0.010,0.070,0.060,-0.010
2.978,-0.020,0.070,0.070,-0.010
2.980,-0.010,0.060,0.060,-0.010
2.982,0.000,0.060,0.050,0.000
2.984,0.020,0.060,0.050,0.000
2.986,0.030,0.050,0.040,0.020
2.988,0.030,0.050,0.020,0.020
2.990,0.020,0.070,0.020,0.000
2.992,0.020,0.060,0.030,0.000
2.994,0.010,0.060,0.030,0.000
2.996,0.010,0.050,0.030,-0.010
2.998,0.010,0.040,0.020,-0.010
3.000,0.020,0.030,0.010,0.000
3.002,0.020,0.040,0.020,0.010
3.004,0.020,0.050,0.030,0.000
3.006,0.020,0.040,0.030,0.000
3.008,0.020,0.040,0.020,0.000
3.010,0.020,0.040,0.010,0.000
3.012,0.020,0.050,0.010,0.000
3.014,0.020,0.040,0.020,0.000
3.016,0.020,0.040,0.030,0.000
3.018,0.020,0.050,0.030,0.000
3.020,0.020,0.060,0.020,0.000
3.022,0.020,0.050,0.020,0.000
3.024,0.030,0.040,0.010,0.000
3.026,0.030,0.040,0.010,0.000
3.028,0.020,0.060,0.030,-0.020
3.030,0.020,0.080,0.040,-0.040
3.032,0.020,0.080,0.040,-0.050
3.034,0.030,0.070,0.020,-0.020
3.036,0.030,0.070,0.010,0.000
3.038,0.030,0.060,0.000,-0.010
3.040,0.040,0.040,0.000,-0.010
3.042,0.040,0.020,0.020,0.000
3.044,0.010,0.040,0.030,-0.010
3.046,0.000,0.060,0.040,-0.040
3.048,0.000,0.050,0.040,-0.040
3.050,0.010,0.030,0.030,-0.010
3.052,0.010,0.030,0.030,0.000
3.054,0.000,0.040,0.030,0.000
3.056,0.000,0.030,0.030,0.000
3.058,-0.010,0.020,0.030,0.000
3.060,-0.030,0.040,0.050,-0.020
3.062,-0.050,0.050,0.060,-0.040
3.064,-0.050,0.040,0.040,-0.050
3.066,-0.040,0.020,0.030,-0.030
3.068,-0.030,0.020,0.020,-0.010
3.070,-0.030,0.020,0.030,-0.020
3.072,-0.040,0.020,0.040,-0.050
3.074,-0.030,0.030,0.040,-0.070
3.076,-0.030,0.020,0.040,-0.070
3.078,-0.030,0.040,0.060,-0.090
3.080,-0.020,0.060,0.080,-0.110
3.082,0.000,0.060,0.090,-0.100
3.084,0.020,0.050,0.080,-0.060
3.086,0.020,0.060,0.080,-0.060
3.088,0.000,0.080,0.100,-0.100
3.090,0.000,0.090,0.110,-0.090
3.092,0.000,0.090,0.100,-0.080
3.094,0.000,0.100,0.100,-0.080
3.096,0.000,0.120,0.110,-0.080
3.098,0.010,0.110,0.100,-0.060
3.100,0.010,0.090,0.070,-0.040
3.102,0.010,0.110,0.060,-0.050
3.104,0.010,0.110,0.070,-0.050
3.106,0.010,0.090,0.070,-0.040
3.108,0.020,0.070,0.070,-0.030
3.110,0.020,0.060,0.070,-0.030
3.112,0.010,0.070,0.070,-0.030
3.114,0.000,0.070,0.060,-0.030
3.116,0.000,0.070,0.030,-0.020
3.118,0.010,0.060,0.010,0.000
3.120,0.010,0.050,0.000,0.010
3.122,0.010,0.040,0.000,0.010
3.124,0.030,0.020,0.000,0.030
3.126,0.030,0.020,-0.010,0.040
3.128,0.010,0.040,0.000,0.030
3.130,0.000,0.070,0.000,0.000
3.132,0.010,0.060,-0.020,0.010
3.134,0.030,0.040,-0.030,0.040
3.136,0.040,0.030,-0.040,0.050
3.138,0.040,0.030,-0.040,0.060
3.140,0.050,0.020,-0.050,0.070
3.142,0.050,0.010,-0.060,0.060
3.144,0.030,0.030,-0.050,0.010
3.146,0.020,0.050,-0.030,0.000
3.148,0.030,0.050,-0.040,0.010
3.150,0.050,0.030,-0.070,0.040
3.152,0.060,0.020,-0.080,0.060
3.154,0.060,0.020,-0.070,0.040
3.156,0.050,0.030,-0.060,0.040
3.158,0.050,0.030,-0.050,0.040
3.160,0.040,0.040,-0.050,0.050
3.162,0.030,0.040,-0.050,0.040
3.164,0.020,0.030,-0.050,0.050
3.166,0.020,0.000,-0.080,0.080
3.168,0.020,-0.040,-0.110,0.100
3.170,0.000,-0.080,-0.160,0.110
3.172,-0.020,-0.120,-0.210,0.110
3.174,-0.050,-0.210,-0.270,0.150
3.176,-0.080,-0.280,-0.300,0.170
3.178,-0.100,-0.270,-0.270,0.170
3.180,-0.050,-0.180,-0.200,0.180
3.182,0.090,-0.020,-0.080,0.200
3.184,0.280,0.240,0.100,0.230
3.186,0.530,0.630,0.350,0.230
3.188,0.870,1.110,0.610,0.300
3.190,1.300,1.630,0.890,0.420
3.192,1.780,2.210,1.190,0.560
3.194,2.270,2.810,1.500,0.700
3.196,2.790,3.420,1.840,0.830
3.198,3.340,4.040,2.170,0.970
3.200,3.860,4.640,2.470,1.070
3.202,4.320,5.140,2.710,1.180
3.204,4.660,5.460,2.860,1.260
3.206,4.870,5.590,2.910,1.290
3.208,4.910,5.590,2.910,1.280
3.210,4.750,5.380,2.800,1.190
3.212,4.320,4.920,2.590,0.980
3.214,3.670,4.260,2.310,0.690
3.216,2.940,3.500,1.990,0.420
3.218,2.260,2.800,1.660,0.210
3.220,1.680,2.180,1.340,0.060
3.222,1.220,1.620,1.030,-0.030
3.224,0.830,1.140,0.750,-0.070
3.226,0.510,0.730,0.490,-0.110
3.228,0.220,0.400,0.290,-0.180
3.230,0.000,0.110,0.100,-0.200
3.232,-0.170,-0.150,-0.050,-0.180
3.234,-0.320,-0.380,-0.200,-0.150
3.236,-0.450,-0.560,-0.320,-0.140
3.238,-0.560,-0.720,-0.410,-0.140
3.240,-0.650,-0.840,-0.490,-0.150
3.242,-0.740,-0.910,-0.540,-0.160
3.244,-0.810,-0.980,-0.570,-0.180
3.246,-0.850,-1.060,-0.600,-0.170
3.248,-0.870,-1.120,-0.630,-0.150
3.250,-0.880,-1.170,-0.660,-0.120
3.252,-0.890,-1.210,-0.680,-0.100
3.254,-0.890,-1.230,-0.700,-0.100
3.256,-0.900,-1.210,-0.710,-0.120
3.258,-0.910,-1.190,-0.710,-0.130
3.260,-0.920,-1.190,-0.710,-0.130
3.262,-0.910,-1.190,-0.720,-0.120
3.264,-0.880,-1.200,-0.720,-0.100
3.266,-0.850,-1.190,-0.720,-0.070
3.268,-0.840,-1.180,-0.720,-0.040
3.270,-0.840,-1.150,-0.710,-0.050
3.272,-0.830,-1.130,-0.690,-0.070
3.274,-0.820,-1.120,-0.680,-0.050
3.276,-0.820,-1.110,-0.670,-0.040
3.278,-0.800,-1.090,-0.660,-0.040
3.280,-0.770,-1.070,-0.640,-0.030
3.282,-0.740,-1.050,-0.640,-0.010
3.284,-0.740,-1.010,-0.630,0.000
3.286,-0.720,-0.980,-0.630,0.000
3.288,-0.690,-0.980,-0.630,0.000
3.290,-0.670,-0.970,-0.630,0.000
3.292,-0.660,-0.950,-0.620,0.000
3.294,-0.660,-0.930,-0.620,0.000
3.296,-0.640,-0.910,-0.610,-0.010
3.298,-0.620,-0.880,-0.600,-0.010
3.300,-0.610,-0.860,-0.590,0.000
3.302,-0.590,-0.850,-0.600,0.030
3.304,-0.560,-0.850,-0.600,0.040
3.306,-0.530,-0.840,-0.600,0.040
3.308,-0.510,-0.820,-0.600,0.040
3.310,-0.510,-0.800,-0.590,0.030
3.312,-0.500,-0.770,-0.570,0.010
3.314,-0.490,-0.750,-0.560,0.010
3.316,-0.470,-0.750,-0.560,0.040
3.318,-0.460,-0.750,-0.550,0.060
3.320,-0.440,-0.740,-0.550,0.070
3.322,-0.400,-0.730,-0.540,0.070
3.324,-0.390,-0.710,-0.540,0.070
3.326,-0.410,-0.680,-0.530,0.060
3.328,-0.420,-0.660,-0.520,0.060
3.330,-0.410,-0.680,-0.520,0.070
3.332,-0.390,-0.680,-0.510,0.080
3.334,-0.370,-0.680,-0.510,0.110
3.336,-0.350,-0.680,-0.510,0.130
3.338,-0.330,-0.690,-0.520,0.130
3.340,-0.320,-0.660,-0.520,0.100
3.342,-0.320,-0.640,-0.510,0.080
3.344,-0.310,-0.630,-0.510,0.070
3.346,-0.300,-0.620,-0.520,0.090
3.348,-0.260,-0.620,-0.530,0.130
3.350,-0.240,-0.630,-0.540,0.160
3.352,-0.210,-0.640,-0.550,0.190
3.354,-0.200,-0.630,-0.560,0.200
3.356,-0.200,-0.630,-0.550,0.190
3.358,-0.190,-0.620,-0.540,0.200
3.360,-0.190,-0.600,-0.540,0.200
3.362,-0.180,-0.600,-0.550,0.210
3.364,-0.170,-0.610,-0.550,0.240
3.366,-0.160,-0.600,-0.550,0.270
3.368,-0.150,-0.590,-0.570,0.290
3.370,-0.130,-0.580,-0.590,0.290
3.372,-0.120,-0.570,-0.610,0.310
3.374,-0.110,-0.570,-0.620,0.330
3.376,-0.100,-0.570,-0.630,0.350
3.378,-0.100,-0.570,-0.640,0.360
3.380,-0.080,-0.570,-0.640,0.380
3.382,-0.070,-0.550,-0.660,0.390
3.384,-0.060,-0.540,-0.670,0.400
3.386,-0.030,-0.550,-0.680,0.430
3.388,0.000,-0.550,-0.690,0.440
3.390,0.010,-0.560,-0.700,0.450
3.392,0.020,-0.560,-0.690,0.460
3.394,0.020,-0.550,-0.690,0.460
3.396,0.020,-0.530,-0.680,0.440
3.398,0.010,-0.510,-0.660,0.430
3.400,0.020,-0.510,-0.660,0.460
3.402,0.040,-0.510,-0.660,0.480
3.404,0.050,-0.510,-0.650,0.490
3.406,0.060,-0.510,-0.640,0.500
3.408,0.050,-0.500,-0.630,0.490
3.410,0.040,-0.500,-0.610,0.470
3.412,0.030,-0.480,-0.600,0.440
3.414,0.030,-0.470,-0.600,0.420
3.416,0.030,-0.460,-0.600,0.420
3.418,0.030,-0.460,-0.580,0.420
3.420,0.030,-0.460,-0.570,0.410
3.422,0.010,-0.460,-0.550,0.380
3.424,-0.020,-0.420,-0.510,0.320
3.426,-0.060,-0.370,-0.440,0.260
3.428,-0.070,-0.360,-0.400,0.230
3.430,-0.070,-0.350,-0.370,0.200
3.432,-0.080,-0.340,-0.340,0.180
3.434,-0.080,-0.340,-0.310,0.160
3.436,-0.080,-0.330,-0.280,0.140
3.438,-0.100,-0.300,-0.240,0.080
3.440,-0.130,-0.270,-0.190,0.010
3.442,-0.150,-0.260,-0.160,-0.010
3.444,-0.160,-0.250,-0.110,-0.030
3.446,-0.160,-0.230,-0.070,-0.060
3.448,-0.170,-0.210,-0.030,-0.090
3.450,-0.160,-0.180,0.000,-0.100
3.452,-0.160,-0.160,0.010,-0.120
3.454,-0.160,-0.130,0.040,-0.150
3.456,-0.170,-0.110,0.080,-0.170
3.458,-0.180,-0.080,0.100,-0.190
3.460,-0.180,-0.050,0.130,-0.210
3.462,-0.180,-0.020,0.150,-0.220
3.464,-0.170,0.000,0.180,-0.240
3.466,-0.170,0.020,0.210,-0.270
3.468,-0.190,0.060,0.240,-0.300
3.470,-0.180,0.060,0.240,-0.300
3.472,-0.180,0.060,0.240,-0.300
3.474,-0.180,0.060,0.250,-0.300
3.476,-0.190,0.060,0.260,-0.300
3.478,-0.190,0.060,0.270,-0.300
3.480,-0.200,0.080,0.280,-0.310
3.482,-0.210,0.100,0.300,-0.320
3.484,-0.200,0.100,0.290,-0.310
3.486,-0.170,0.090,0.280,-0.290
3.488,-0.160,0.100,0.290,-0.290
3.490,-0.140,0.090,0.300,-0.290
3.492,-0.140,0.100,0.290,-0.290
3.494,-0.160,0.110,0.290,-0.290
3.496,-0.180,0.130,0.290,-0.310
3.498,-0.160,0.120,0.280,-0.300
3.500,-0.140,0.100,0.260,-0.280
3.502,-0.120,0.090,0.250,-0.260
3.504,-0.120,0.080,0.250,-0.260
3.506,-0.110,0.070,0.240,-0.260
3.508,-0.120,0.070,0.250,-0.280
3.510,-0.150,0.110,0.280,-0.310
3.512,-0.150,0.100,0.280,-0.310
3.514,-0.130,0.090,0.260,-0.280
3.516,-0.130,0.070,0.230,-0.240
3.518,-0.120,0.040,0.210,-0.220
3.520,-0.110,0.020,0.200,-0.220
3.522,-0.100,0.030,0.200,-0.230
3.524,-0.110,0.040,0.200,-0.250
3.526,-0.130,0.040,0.200,-0.250
3.528,-0.140,0.040,0.190,-0.250
3.530,-0.130,0.040,0.190,-0.250
3.532,-0.130,0.020,0.170,-0.230
3.534,-0.120,0.010,0.160,-0.200
3.536,-0.120,0.020,0.150,-0.180
3.538,-0.140,0.030,0.140,-0.190
3.540,-0.140,0.020,0.130,-0.190
3.542,-0.130,0.000,0.120,-0.180
3.544,-0.120,0.000,0.130,-0.190
3.546,-0.120,0.000,0.140,-0.200
3.548,-0.110,0.000,0.160,-0.200
3.550,-0.110,0.000,0.170,-0.180
3.552,-0.130,0.030,0.200,-0.190
3.554,-0.130,0.030,0.200,-0.180
3.556,-0.120,0.020,0.190,-0.160
3.558,-0.100,0.030,0.180,-0.160
3.560,-0.110,0.040,0.180,-0.150
3.562,-0.110,0.030,0.190,-0.150
3.564,-0.110,0.030,0.180,-0.140
3.566,-0.120,0.040,0.180,-0.130
3.568,-0.100,0.030,0.170,-0.100
3.570,-0.080,0.020,0.160,-0.080
3.572,-0.070,0.020,0.150,-0.080
3.574,-0.060,0.020,0.150,-0.080
3.576,-0.060,0.030,0.140,-0.090
3.578,-0.060,0.030,0.140,-0.100
3.580,-0.070,0.050,0.140,-0.110
3.582,-0.060,0.040,0.140,-0.100
3.584,-0.050,0.030,0.130,-0.090
3.586,-0.040,0.020,0.130,-0.080
3.588,-0.020,0.010,0.120,-0.060
3.590,-0.010,0.000,0.120,-0.060
3.592,-0.020,0.010,0.120,-0.080
3.594,-0.040,0.030,0.140,-0.110
3.596,-0.040,0.020,0.140,-0.110
3.598,-0.030,0.020,0.130,-0.090
3.600,-0.010,0.010,0.120,-0.070
3.602,0.000,0.020,0.120,-0.050
3.604,0.000,0.020,0.100,-0.030
3.606,0.000,0.020,0.080,-0.040
3.608,-0.020,0.050,0.080,-0.050
3.610,-0.020,0.050,0.080,-0.060
3.612,-0.020,0.050,0.080,-0.060
3.614,-0.010,0.040,0.080,-0.070
3.616,0.000,0.030,0.070,-0.050
3.618,0.000,0.030,0.060,-0.010
3.620,0.000,0.020,0.060,0.000
3.622,0.000,0.020,0.060,-0.010
3.624,-0.010,0.010,0.050,-0.020
3.626,-0.020,0.010,0.060,-0.040
3.628,-0.010,0.020,0.060,-0.040
3.630,0.000,0.020,0.050,-0.040
3.632,0.020,0.000,0.050,-0.030
3.634,0.020,0.000,0.060,-0.010
3.636,0.020,0.020,0.070,-0.010
3.638,0.010,0.010,0.070,-0.010
3.640,0.010,0.010,0.070,-0.010
3.642,0.010,0.010,0.070,-0.010
3.644,0.000,0.010,0.060,-0.010
3.646,0.000,0.010,0.060,-0.010
3.648,0.000,0.020,0.050,0.000
3.650,0.000,0.040,0.050,-0.010
3.652,0.000,0.040,0.040,0.000
3.654,0.000,0.020,0.030,0.000
3.656,0.010,0.020,0.030,0.000
3.658,0.000,0.030,0.030,0.000
3.660,0.000,0.030,0.040,0.000
3.662,0.000,0.040,0.050,0.000
3.664,0.000,0.080,0.050,-0.020
3.666,-0.010,0.090,0.050,-0.010
3.668,0.000,0.070,0.040,0.000
3.670,0.010,0.050,0.030,0.010
3.672,0.010,0.030,0.020,0.010
3.674,0.010,0.020,0.020,0.010
3.676,-0.010,0.030,0.050,0.000
3.678,-0.040,0.070,0.090,-0.060
3.680,-0.050,0.080,0.110,-0.060
3.682,-0.040,0.080,0.110,-0.040
3.684,-0.020,0.070,0.110,-0.020
3.686,0.000,0.060,0.100,0.000
3.688,0.000,0.050,0.090,0.000
3.690,0.010,0.050,0.090,0.000
3.692,0.000,0.060,0.100,-0.030
3.694,0.000,0.060,0.100,-0.040
3.696,0.000,0.050,0.090,-0.030
3.698,0.020,0.040,0.080,-0.010
3.700,0.020,0.020,0.060,0.000
3.702,0.010,0.000,0.050,0.030
3.704,0.010,0.000,0.050,0.050
3.706,0.010,0.020,0.050,0.050
3.708,0.000,0.030,0.050,0.040
3.710,0.000,0.020,0.060,0.030
3.712,-0.010,0.010,0.050,0.020
3.714,-0.010,0.000,0.040,0.010
3.716,-0.010,0.000,0.030,0.010
3.718,-0.010,0.000,0.030,0.020
3.720,0.000,0.010,0.040,0.000
3.722,0.000,0.010,0.040,0.000
3.724,0.000,0.000,0.030,0.000
3.726,-0.010,0.000,0.040,-0.010
3.728,-0.020,0.000,0.050,-0.020
3.730,-0.030,0.000,0.050,-0.040
3.732,-0.020,0.000,0.050,-0.040
3.734,-0.020,0.000,0.040,-0.030
3.736,-0.020,0.000,0.030,-0.020
3.738,-0.010,0.000,0.020,-0.020
3.740,0.000,-0.010,0.020,-0.010
3.742,-0.010,0.000,0.010,0.000
3.744,-0.020,-0.010,0.020,-0.010
3.746,-0.020,-0.010,0.030,-0.030
3.748,-0.030,0.010,0.040,-0.050
3.750,-0.020,0.020,0.030,-0.040
3.752,-0.020,0.010,0.020,-0.040
3.754,-0.010,0.010,0.030,-0.030
3.756,-0.020,0.010,0.050,-0.040
3.758,-0.030,0.010,0.060,-0.040
3.760,-0.040,0.020,0.070,-0.050
3.762,-0.070,0.040,0.080,-0.060
3.764,-0.070,0.030,0.080,-0.060
3.766,-0.050,0.040,0.070,-0.030
3.768,-0.030,0.050,0.070,-0.020
3.770,0.000,0.050,0.070,-0.010
3.772,0.000,0.050,0.060,-0.010
3.774,0.000,0.050,0.070,-0.010
3.776,0.000,0.080,0.090,-0.040
3.778,0.000,0.080,0.090,-0.050
3.780,0.010,0.070,0.090,-0.050
3.782,0.030,0.070,0.080,-0.030
3.784,0.040,0.070,0.060,-0.020
3.786,0.060,0.060,0.050,-0.010
3.788,0.050,0.070,0.060,-0.010
3.790,0.050,0.080,0.060,-0.020
3.792,0.040,0.070,0.060,-0.030
3.794,0.030,0.050,0.060,-0.030
3.796,0.030,0.050,0.060,-0.040
3.798,0.030,0.050,0.060,-0.040
3.800,0.040,0.040,0.050,-0.010
3.802,0.050,0.020,0.040,0.010
3.804,0.040,0.030,0.030,0.010
3.806,0.040,0.030,0.020,0.000
3.808,0.040,0.020,0.010,0.000
3.810,0.030,0.020,0.000,0.010
3.812,0.030,0.020,0.000,0.010
3.814,0.030,0.010,-0.010,0.030
3.816,0.030,0.020,-0.030,0.050
3.818,0.040,0.030,-0.040,0.070
3.820,0.040,0.030,-0.050,0.080
3.822,0.050,0.010,-0.040,0.080
3.824,0.060,0.000,-0.030,0.070
3.826,0.050,0.010,-0.010,0.060
3.828,0.040,0.010,0.000,0.050
3.830,0.040,0.000,0.000,0.030
3.832,0.030,0.020,0.000,0.010
3.834,0.030,0.040,0.000,0.010
3.836,0.050,0.040,0.000,0.020
3.838,0.060,0.040,-0.010,0.020
3.840,0.070,0.030,-0.020,0.030
3.842,0.060,0.020,-0.010,0.040
3.844,0.050,0.030,0.000,0.050
3.846,0.030,0.040,0.000,0.050
3.848,0.010,0.030,-0.020,0.060
3.850,0.020,0.000,-0.060,0.080
3.852,0.030,-0.050,-0.120,0.110
3.854,0.030,-0.110,-0.160,0.140
3.856,0.000,-0.190,-0.220,0.170
3.858,-0.030,-0.270,-0.280,0.180
3.860,-0.060,-0.280,-0.320,0.180
3.862,-0.050,-0.230,-0.300,0.170
3.864,0.020,-0.110,-0.200,0.170
3.866,0.160,0.100,-0.050,0.170
3.868,0.350,0.380,0.140,0.200
3.870,0.620,0.750,0.370,0.260
3.872,0.990,1.210,0.620,0.340
3.874,1.420,1.740,0.910,0.440
3.876,1.890,2.310,1.220,0.550
3.878,2.390,2.890,1.540,0.670
3.880,2.880,3.480,1.870,0.780
3.882,3.370,4.050,2.180,0.900
3.884,3.800,4.510,2.430,1.010
3.886,4.120,4.810,2.570,1.090
3.888,4.300,4.960,2.630,1.130
3.890,4.330,4.950,2.600,1.110
3.892,4.170,4.720,2.470,1.060
3.894,3.770,4.260,2.250,0.880
3.896,3.150,3.640,2.000,0.600
3.898,2.480,2.990,1.740,0.330
3.900,1.900,2.390,1.470,0.140
3.902,1.420,1.890,1.200,0.010
3.904,1.020,1.440,0.940,-0.060
3.906,0.690,1.040,0.700,-0.110
3.908,0.420,0.690,0.500,-0.140
3.910,0.200,0.390,0.310,-0.150
3.912,0.020,0.140,0.150,-0.160
3.914,-0.120,-0.070,0.000,-0.170
3.916,-0.250,-0.260,-0.120,-0.160
3.918,-0.370,-0.420,-0.230,-0.160
3.920,-0.460,-0.560,-0.320,-0.130
3.922,-0.540,-0.670,-0.410,-0.120
3.924,-0.610,-0.760,-0.470,-0.110
3.926,-0.670,-0.830,-0.500,-0.110
3.928,-0.720,-0.890,-0.530,-0.110
3.930,-0.760,-0.930,-0.550,-0.120
3.932,-0.770,-0.960,-0.560,-0.130
3.934,-0.770,-0.980,-0.570,-0.100
3.936,-0.760,-1.010,-0.600,-0.070
3.938,-0.750,-1.030,-0.610,-0.070
3.940,-0.740,-1.040,-0.630,-0.070
3.942,-0.750,-1.050,-0.640,-0.080
3.944,-0.780,-1.040,-0.640,-0.090
3.946,-0.790,-1.030,-0.640,-0.080
3.948,-0.770,-1.040,-0.640,-0.060
3.950,-0.740,-1.040,-0.640,-0.040
3.952,-0.710,-1.040,-0.630,-0.020
3.954,-0.690,-1.030,-0.620,-0.020
3.956,-0.660,-1.020,-0.630,-0.010
3.958,-0.660,-1.000,-0.620,-0.010
3.960,-0.660,-0.960,-0.600,-0.030
3.962,-0.650,-0.940,-0.580,-0.030
3.964,-0.630,-0.930,-0.560,-0.020
3.966,-0.610,-0.910,-0.560,-0.010
3.968,-0.580,-0.890,-0.560,0.000
3.970,-0.550,-0.870,-0.550,0.010
3.972,-0.540,-0.830,-0.530,0.000
3.974,-0.540,-0.790,-0.510,0.000
3.976,-0.540,-0.780,-0.520,0.000
3.978,-0.540,-0.760,-0.520,0.000
3.980,-0.530,-0.750,-0.520,0.020
3.982,-0.510,-0.740,-0.530,0.050
3.984,-0.490,-0.730,-0.520,0.070
3.986,-0.480,-0.710,-0.510,0.080
3.988,-0.480,-0.670,-0.510,0.070
3.990,-0.460,-0.660,-0.510,0.060
3.992,-0.460,-0.660,-0.500,0.050
3.994,-0.440,-0.660,-0.500,0.060
3.996,-0.410,-0.650,-0.500,0.070
3.998,-0.390,-0.640,-0.500,0.080
4.000,-0.370,-0.610,-0.510,0.090
4.002,-0.350,-0.590,-0.510,0.100
4.004,-0.330,-0.590,-0.500,0.110
4.006,-0.320,-0.590,-0.480,0.120
4.008,-0.330,-0.580,-0.480,0.120
4.010,-0.330,-0.570,-0.470,0.110
4.012,-0.310,-0.560,-0.470,0.110
4.014,-0.290,-0.560,-0.450,0.120
4.016,-0.270,-0.550,-0.450,0.120
4.018,-0.250,-0.530,-0.460,0.140
4.020,-0.230,-0.520,-0.460,0.150
4.022,-0.210,-0.510,-0.470,0.160
4.024,-0.200,-0.500,-0.460,0.160
4.026,-0.200,-0.500,-0.450,0.160
4.028,-0.200,-0.480,-0.440,0.160
4.030,-0.190,-0.470,-0.440,0.150
4.032,-0.180,-0.480,-0.450,0.170
4.034,-0.180,-0.490,-0.470,0.210
4.036,-0.160,-0.490,-0.480,0.240
4.038,-0.150,-0.490,-0.500,0.240
4.040,-0.140,-0.490,-0.510,0.250
4.042,-0.140,-0.480,-0.510,0.230
4.044,-0.160,-0.460,-0.500,0.210
4.046,-0.140,-0.450,-0.500,0.210
4.048,-0.100,-0.450,-0.520,0.240
4.050,-0.080,-0.450,-0.540,0.280
4.052,-0.060,-0.450,-0.560,0.320
4.054,-0.050,-0.460,-0.570,0.340
4.056,-0.040,-0.460,-0.570,0.340
4.058,-0.040,-0.440,-0.560,0.320
4.060,-0.040,-0.440,-0.550,0.310
4.062,-0.040,-0.440,-0.570,0.320
4.064,-0.010,-0.440,-0.590,0.350
4.066,0.010,-0.450,-0.600,0.380
4.068,0.030,-0.450,-0.600,0.400
4.070,0.040,-0.440,-0.590,0.420
4.072,0.020,-0.420,-0.580,0.400
4.074,0.020,-0.410,-0.590,0.410
4.076,0.020,-0.410,-0.600,0.420
4.078,0.020,-0.410,-0.600,0.430
4.080,0.040,-0.400,-0.590,0.430
4.082,0.060,-0.400,-0.580,0.430
4.084,0.070,-0.390,-0.570,0.450
4.086,0.070,-0.370,-0.570,0.450
4.088,0.070,-0.360,-0.580,0.440
4.090,0.080,-0.360,-0.570,0.440
4.092,0.070,-0.350,-0.550,0.440
4.094,0.060,-0.340,-0.540,0.420
4.096,0.060,-0.350,-0.540,0.410
4.098,0.060,-0.340,-0.530,0.380
4.100,0.050,-0.310,-0.510,0.350
4.102,0.040,-0.310,-0.490,0.360
4.104,0.050,-0.320,-0.480,0.340
4.106,0.040,-0.320,-0.460,0.300
4.108,0.020,-0.320,-0.430,0.270
4.110,0.000,-0.310,-0.380,0.240
4.112,-0.010,-0.290,-0.340,0.190
4.114,-0.050,-0.240,-0.300,0.130
4.116,-0.060,-0.230,-0.270,0.110
4.118,-0.070,-0.230,-0.240,0.110
4.120,-0.070,-0.230,-0.210,0.100
4.122,-0.070,-0.220,-0.180,0.070
4.124,-0.090,-0.210,-0.150,0.020
4.126,-0.110,-0.180,-0.120,-0.020
4.128,-0.130,-0.160,-0.080,-0.070
4.130,-0.150,-0.140,-0.050,-0.110
4.132,-0.160,-0.140,-0.020,-0.120
4.134,-0.160,-0.120,0.000,-0.120
4.136,-0.160,-0.100,0.010,-0.130
4.138,-0.160,-0.080,0.040,-0.160
4.140,-0.170,-0.050,0.060,-0.190
4.142,-0.180,-0.020,0.090,-0.220
4.144,-0.200,0.000,0.120,-0.230
4.146,-0.200,0.000,0.150,-0.240
4.148,-0.190,0.020,0.160,-0.260
4.150,-0.180,0.040,0.160,-0.250
4.152,-0.160,0.050,0.170,-0.240
4.154,-0.170,0.050,0.180,-0.240
4.156,-0.190,0.060,0.200,-0.260
4.158,-0.200,0.070,0.200,-0.260
4.160,-0.200,0.060,0.200,-0.260
4.162,-0.200,0.050,0.210,-0.260
4.164,-0.200,0.050,0.210,-0.270
4.166,-0.190,0.050,0.220,-0.260
4.168,-0.180,0.050,0.220,-0.260
4.170,-0.190,0.080,0.240,-0.280
4.172,-0.180,0.080,0.240,-0.280
4.174,-0.180,0.080,0.240,-0.270
4.176,-0.170,0.080,0.230,-0.270
4.178,-0.170,0.060,0.220,-0.260
4.180,-0.160,0.050,0.240,-0.270
4.182,-0.150,0.040,0.230,-0.260
4.184,-0.140,0.050,0.220,-0.250
4.186,-0.130,0.040,0.210,-0.240
4.188,-0.120,0.050,0.220,-0.240
4.190,-0.120,0.040,0.220,-0.230
4.192,-0.120,0.020,0.220,-0.220
4.194,-0.130,0.020,0.240,-0.230
4.196,-0.160,0.040,0.250,-0.240
4.198,-0.150,0.060,0.250,-0.240
4.200,-0.130,0.050,0.220,-0.210
4.202,-0.120,0.040,0.200,-0.200
4.204,-0.120,0.050,0.200,-0.210
4.206,-0.110,0.030,0.190,-0.210
4.208,-0.100,0.020,0.180,-0.210
4.210,-0.110,0.020,0.180,-0.220
4.212,-0.130,0.040,0.200,-0.250
4.214,-0.120,0.040,0.200,-0.250
4.216,-0.100,0.010,0.200,-0.220
4.218,-0.090,0.010,0.190,-0.190
4.220,-0.080,0.030,0.180,-0.190
4.222,-0.080,0.030,0.180,-0.190
4.224,-0.080,0.020,0.180,-0.180
4.226,-0.100,0.050,0.200,-0.200
4.228,-0.110,0.060,0.220,-0.210
4.230,-0.110,0.060,0.230,-0.210
4.232,-0.080,0.030,0.220,-0.180
4.234,-0.070,0.020,0.190,-0.160
4.236,-0.070,0.020,0.190,-0.150
4.238,-0.070,0.030,0.190,-0.170
4.240,-0.080,0.030,0.190,-0.170
4.242,-0.080,0.010,0.180,-0.160
4.244,-0.070,0.010,0.180,-0.160
4.246,-0.070,0.020,0.170,-0.170
4.248,-0.050,0.020,0.160,-0.170
4.250,-0.040,0.000,0.150,-0.140
4.252,-0.030,0.010,0.140,-0.130
4.254,-0.040,0.050,0.150,-0.170
4.256,-0.040,0.050,0.150,-0.180
4.258,-0.030,0.030,0.150,-0.160
4.260,-0.040,0.020,0.140,-0.140
4.262,-0.050,0.020,0.150,-0.140
4.264,-0.050,0.020,0.150,-0.130
4.266,-0.040,0.010,0.120,-0.100
4.268,-0.040,0.040,0.110,-0.100
4.270,-0.050,0.050,0.110,-0.100
4.272,-0.050,0.040,0.110,-0.100
4.274,-0.040,0.020,0.100,-0.090
4.276,-0.040,0.030,0.100,-0.080
4.278,-0.040,0.050,0.110,-0.100
4.280,-0.030,0.060,0.110,-0.110
4.282,-0.020,0.070,0.110,-0.110
4.284,-0.010,0.060,0.100,-0.080
4.286,0.000,0.060,0.090,-0.070
4.288,0.000,0.060,0.090,-0.080
4.290,0.000,0.050,0.090,-0.070
4.292,0.000,0.030,0.080,-0.050
4.294,-0.020,0.040,0.090,-0.050
4.296,-0.040,0.070,0.110,-0.090
4.298,-0.040,0.070,0.120,-0.090
4.300,-0.020,0.050,0.110,-0.060
4.302,0.000,0.030,0.100,-0.040
4.304,0.000,0.030,0.110,-0.040
4.306,0.000,0.030,0.100,-0.050
4.308,0.000,0.030,0.080,-0.040
4.310,-0.020,0.050,0.080,-0.080
4.312,-0.050,0.070,0.100,-0.110
4.314,-0.040,0.060,0.100,-0.110
4.316,-0.020,0.040,0.090,-0.070
4.318,-0.010,0.010,0.070,-0.030
4.320,0.000,0.020,0.070,-0.030
4.322,0.010,0.020,0.080,-0.040
4.324,0.000,0.030,0.090,-0.050
4.326,-0.010,0.040,0.080,-0.060
4.328,-0.020,0.040,0.080,-0.060
4.330,-0.020,0.040,0.090,-0.060
4.332,0.000,0.040,0.080,-0.040
4.334,0.020,0.040,0.070,-0.020
4.336,0.010,0.050,0.070,-0.010
4.338,0.000,0.070,0.080,-0.050
4.340,0.000,0.070,0.080,-0.070
4.342,0.000,0.060,0.080,-0.050
4.344,-0.010,0.060,0.100,-0.050
4.346,-0.030,0.080,0.100,-0.060
4.348,-0.030,0.070,0.080,-0.060
4.350,-0.010,0.050,0.060,-0.040
4.352,-0.010,0.070,0.080,-0.030
4.354,-0.010,0.080,0.090,-0.050
4.356,0.000,0.070,0.100,-0.060
4.358,0.000,0.060,0.090,-0.070
4.360,-0.010,0.060,0.100,-0.080
4.362,-0.010,0.060,0.100,-0.090
4.364,-0.010,0.060,0.090,-0.070
4.366,0.000,0.070,0.070,-0.050
4.368,0.000,0.060,0.060,-0.050
4.370,0.000,0.060,0.050,-0.050
4.372,0.010,0.040,0.060,-0.060
4.374,0.000,0.050,0.060,-0.050
4.376,0.000,0.050,0.070,-0.050
4.378,-0.010,0.050,0.080,-0.060
4.380,-0.020,0.060,0.090,-0.080
4.382,-0.020,0.050,0.080,-0.070
4.384,-0.020,0.050,0.060,-0.050
4.386,-0.010,0.050,0.050,-0.030
4.388,-0.010,0.040,0.060,-0.030
4.390,-0.010,0.040,0.070,-0.020
4.392,0.000,0.040,0.070,-0.030
4.394,-0.010,0.060,0.080,-0.060
4.396,-0.020,0.080,0.100,-0.080
4.398,-0.010,0.060,0.090,-0.070
4.400,0.000,0.040,0.080,-0.040
4.402,0.000,0.040,0.080,-0.030
4.404,0.000,0.050,0.080,-0.030
4.406,0.010,0.050,0.070,-0.030
4.408,0.000,0.050,0.070,-0.050
4.410,-0.030,0.060,0.070,-0.070
4.412,-0.030,0.050,0.070,-0.080
4.414,-0.040,0.030,0.070,-0.080
4.416,-0.040,0.020,0.080,-0.070
4.418,-0.030,0.020,0.070,-0.050
4.420,-0.030,0.030,0.070,-0.050
4.422,-0.040,0.050,0.080,-0.080
4.424,-0.060,0.070,0.090,-0.110
4.426,-0.070,0.080,0.090,-0.110
4.428,-0.080,0.070,0.100,-0.100
4.430,-0.070,0.050,0.090,-0.090
4.432,-0.060,0.040,0.070,-0.060
4.434,-0.060,0.020,0.060,-0.040
4.436,-0.050,0.010,0.050,-0.040
4.438,-0.060,0.010,0.050,-0.060
4.440,-0.060,0.010,0.060,-0.070
4.442,-0.060,0.020,0.060,-0.070
4.444,-0.070,0.040,0.060,-0.070
4.446,-0.070,0.040,0.060,-0.060
4.448,-0.070,0.040,0.050,-0.050
4.450,-0.070,0.060,0.060,-0.060
4.452,-0.070,0.070,0.070,-0.050
4.454,-0.060,0.070,0.060,-0.040
4.456,-0.050,0.060,0.060,-0.050
4.458,-0.050,0.060,0.060,-0.050
4.460,-0.070,0.050,0.050,-0.060
4.462,-0.060,0.040,0.050,-0.060
4.464,-0.050,0.060,0.060,-0.070
4.466,-0.060,0.080,0.070,-0.090
4.468,-0.040,0.070,0.070,-0.060
4.470,-0.030,0.050,0.040,-0.030
4.472,-0.020,0.040,0.030,-0.020
4.474,-0.010,0.040,0.010,-0.010
4.476,-0.020,0.030,0.010,-0.030
4.478,-0.050,0.030,0.010,-0.040
4.480,-0.060,0.020,0.000,-0.060
4.482,-0.050,0.000,-0.010,-0.040
4.484,-0.050,-0.010,-0.020,-0.020
4.486,-0.050,-0.020,-0.030,0.000
4.488,-0.040,-0.030,-0.040,0.000
4.490,-0.030,-0.050,-0.040,0.010
4.492,-0.050,-0.040,-0.040,0.010
4.494,-0.050,-0.020,-0.040,0.000
4.496,-0.030,-0.020,-0.060,0.000
4.498,-0.020,-0.030,-0.060,0.010
4.500,-0.020,-0.040,-0.050,0.020
4.502,0.000,-0.050,-0.060,0.030
4.504,0.010,-0.050,-0.070,0.040
4.506,0.010,-0.050,-0.070,0.020
4.508,-0.010,-0.040,-0.050,0.000
4.510,-0.010,-0.040,-0.050,0.000
4.512,-0.010,-0.050,-0.060,0.000
4.514,0.000,-0.060,-0.070,0.000
4.516,0.000,-0.060,-0.080,0.000
4.518,0.010,-0.060,-0.090,0.020
4.520,0.010,-0.040,-0.090,0.020
4.522,0.000,-0.030,-0.090,0.000
4.524,0.010,-0.030,-0.080,0.000
4.526,0.000,-0.030,-0.070,0.020
4.528,0.000,-0.040,-0.060,0.020
4.530,0.000,-0.050,-0.050,0.020
4.532,0.010,-0.060,-0.060,0.030
4.534,0.000,-0.070,-0.080,0.030
4.536,0.000,-0.100,-0.110,0.040
4.538,0.000,-0.140,-0.150,0.060
4.540,0.000,-0.190,-0.220,0.090
4.542,-0.020,-0.260,-0.280,0.110
4.544,-0.060,-0.300,-0.310,0.110
4.546,-0.090,-0.300,-0.310,0.100
4.548,-0.050,-0.250,-0.260,0.110
4.550,0.050,-0.100,-0.140,0.110
4.552,0.210,0.130,0.030,0.130
4.554,0.430,0.460,0.240,0.160
4.556,0.730,0.860,0.460,0.240
4.558,1.100,1.330,0.680,0.340
4.560,1.530,1.850,0.930,0.460
4.562,1.980,2.400,1.220,0.570
4.564,2.450,2.960,1.520,0.680
4.566,2.920,3.490,1.820,0.810
4.568,3.370,3.990,2.100,0.920
4.570,3.730,4.380,2.310,1.000
4.572,3.980,4.610,2.430,1.050
4.574,4.090,4.680,2.450,1.080
4.576,4.050,4.610,2.400,1.040
4.578,3.830,4.350,2.250,0.940
4.580,3.400,3.870,2.030,0.740
4.582,2.820,3.260,1.770,0.500
4.584,2.230,2.660,1.510,0.300
4.586,1.710,2.110,1.250,0.150
4.588,1.290,1.640,1.010,0.040
4.590,0.940,1.230,0.810,-0.030
4.592,0.630,0.880,0.620,-0.100
4.594,0.370,0.560,0.430,-0.140
4.596,0.180,0.270,0.250,-0.170
4.598,0.010,0.020,0.100,-0.180
4.600,-0.130,-0.180,-0.030,-0.170
4.602,-0.250,-0.360,-0.150,-0.160
4.604,-0.360,-0.510,-0.240,-0.150
4.606,-0.450,-0.630,-0.310,-0.170
4.608,-0.530,-0.730,-0.360,-0.170
4.610,-0.600,-0.820,-0.400,-0.170
4.612,-0.660,-0.880,-0.430,-0.170
4.614,-0.690,-0.930,-0.450,-0.170
4.616,-0.710,-0.970,-0.470,-0.150
4.618,-0.720,-1.000,-0.500,-0.130
4.620,-0.740,-1.000,-0.530,-0.130
4.622,-0.740,-1.030,-0.550,-0.120
4.624,-0.750,-1.040,-0.560,-0.120
4.626,-0.750,-1.040,-0.560,-0.110
4.628,-0.760,-1.040,-0.550,-0.110
4.630,-0.760,-1.030,-0.560,-0.100
4.632,-0.760,-1.030,-0.570,-0.090
4.634,-0.770,-1.000,-0.550,-0.090
4.636,-0.760,-0.990,-0.550,-0.080
4.638,-0.730,-0.980,-0.560,-0.070
4.640,-0.710,-0.980,-0.580,-0.060
4.642,-0.710,-0.970,-0.580,-0.050
4.644,-0.710,-0.970,-0.570,-0.050
4.646,-0.700,-0.950,-0.560,-0.050
4.648,-0.690,-0.930,-0.540,-0.050
4.650,-0.660,-0.920,-0.550,-0.030
4.652,-0.630,-0.930,-0.560,-0.010
4.654,-0.620,-0.920,-0.570,-0.010
4.656,-0.600,-0.910,-0.570,0.000
4.658,-0.590,-0.900,-0.560,0.000
4.660,-0.590,-0.870,-0.560,0.000
4.662,-0.590,-0.830,-0.550,0.000
4.664,-0.570,-0.820,-0.540,0.010
4.666,-0.540,-0.830,-0.540,0.030
4.668,-0.510,-0.840,-0.550,0.070
4.670,-0.490,-0.840,-0.550,0.090
4.672,-0.470,-0.830,-0.550,0.090
4.674,-0.470,-0.810,-0.550,0.090
4.676,-0.460,-0.780,-0.540,0.090
4.678,-0.450,-0.760,-0.540,0.100
4.680,-0.420,-0.760,-0.550,0.110
4.682,-0.390,-0.760,-0.570,0.130
4.684,-0.380,-0.760,-0.590,0.160
4.686,-0.380,-0.760,-0.590,0.190
4.688,-0.380,-0.740,-0.600,0.180
4.690,-0.370,-0.720,-0.610,0.170
4.692,-0.370,-0.710,-0.610,0.170
4.694,-0.360,-0.710,-0.610,0.170
4.696,-0.350,-0.700,-0.600,0.170
4.698,-0.330,-0.700,-0.600,0.190
4.700,-0.320,-0.700,-0.620,0.220
4.702,-0.300,-0.700,-0.620,0.250
4.704,-0.290,-0.680,-0.620,0.250
4.706,-0.270,-0.680,-0.620,0.240
4.708,-0.260,-0.690,-0.630,0.240
4.710,-0.260,-0.680,-0.640,0.240
4.712,-0.250,-0.670,-0.630,0.250
4.714,-0.210,-0.670,-0.620,0.270
4.716,-0.190,-0.670,-0.630,0.290
4.718,-0.190,-0.660,-0.630,0.290
4.720,-0.170,-0.650,-0.620,0.290
4.722,-0.150,-0.650,-0.620,0.310
4.724,-0.140,-0.640,-0.630,0.320
4.726,-0.140,-0.630,-0.630,0.340
4.728,-0.120,-0.620,-0.620,0.340
4.730,-0.100,-0.620,-0.620,0.350
4.732,-0.090,-0.600,-0.630,0.360
4.734,-0.080,-0.600,-0.630,0.390
4.736,-0.060,-0.600,-0.620,0.420
4.738,-0.040,-0.600,-0.620,0.450
4.740,-0.030,-0.600,-0.630,0.460
4.742,-0.030,-0.590,-0.630,0.470
4.744,-0.020,-0.580,-0.620,0.470
4.746,-0.010,-0.560,-0.610,0.450
4.748,0.020,-0.550,-0.610,0.450
4.750,0.040,-0.530,-0.610,0.460
4.752,0.070,-0.520,-0.610,0.470
4.754,0.080,-0.520,-0.620,0.460
4.756,0.100,-0.520,-0.620,0.450
4.758,0.100,-0.510,-0.610,0.440
4.760,0.100,-0.480,-0.590,0.410
4.762,0.090,-0.470,-0.580,0.410
4.764,0.090,-0.460,-0.570,0.400
4.766,0.090,-0.440,-0.580,0.400
4.768,0.100,-0.450,-0.570,0.410
4.770,0.110,-0.450,-0.560,0.410
4.772,0.120,-0.440,-0.550,0.390
4.774,0.110,-0.420,-0.540,0.380
4.776,0.090,-0.410,-0.530,0.360
4.778,0.080,-0.400,-0.520,0.340
4.780,0.080,-0.390,-0.490,0.310
4.782,0.080,-0.390,-0.480,0.310
4.784,0.090,-0.370,-0.490,0.300
4.786,0.080,-0.360,-0.470,0.290
4.788,0.070,-0.340,-0.430,0.240
4.790,0.060,-0.320,-0.400,0.200
4.792,0.040,-0.310,-0.360,0.200
4.794,0.030,-0.310,-0.330,0.170
4.796,0.000,-0.300,-0.300,0.130
4.798,-0.010,-0.270,-0.270,0.090
4.800,-0.020,-0.260,-0.250,0.060
4.802,-0.030,-0.240,-0.220,0.030
4.804,-0.030,-0.230,-0.200,0.000
4.806,-0.050,-0.210,-0.170,-0.050
4.808,-0.070,-0.180,-0.130,-0.090
4.810,-0.090,-0.160,-0.090,-0.110
4.812,-0.110,-0.150,-0.050,-0.150
4.814,-0.130,-0.120,-0.010,-0.200
4.816,-0.150,-0.080,0.020,-0.230
4.818,-0.150,-0.070,0.060,-0.250
4.820,-0.150,-0.050,0.090,-0.260
4.822,-0.150,-0.030,0.130,-0.290
4.824,-0.150,-0.010,0.180,-0.340
4.826,-0.180,0.000,0.230,-0.380
4.828,-0.190,0.010,0.260,-0.420
4.830,-0.220,0.050,0.310,-0.480
4.832,-0.230,0.080,0.340,-0.500
4.834,-0.210,0.080,0.340,-0.490
4.836,-0.190,0.080,0.350,-0.480
4.838,-0.190,0.100,0.360,-0.490
4.840,-0.200,0.120,0.370,-0.510
4.842,-0.220,0.140,0.390,-0.530
4.844,-0.240,0.160,0.420,-0.560
4.846,-0.240,0.170,0.450,-0.600
4.848,-0.230,0.190,0.470,-0.620
4.850,-0.220,0.210,0.480,-0.600
4.852,-0.220,0.220,0.480,-0.580
4.854,-0.210,0.230,0.490,-0.580
4.856,-0.210,0.230,0.510,-0.610
4.858,-0.230,0.240,0.530,-0.650
4.860,-0.250,0.240,0.540,-0.660
4.862,-0.250,0.250,0.550,-0.690
4.864,-0.250,0.260,0.560,-0.700
4.866,-0.240,0.260,0.560,-0.690
4.868,-0.230,0.250,0.560,-0.670
4.870,-0.220,0.240,0.570,-0.670
4.872,-0.210,0.250,0.580,-0.690
4.874,-0.210,0.270,0.580,-0.700
4.876,-0.220,0.270,0.600,-0.710
4.878,-0.230,0.270,0.610,-0.730
4.880,-0.240,0.250,0.590,-0.740
4.882,-0.220,0.240,0.570,-0.730
4.884,-0.200,0.240,0.540,-0.730
4.886,-0.190,0.240,0.520,-0.720
4.888,-0.200,0.240,0.520,-0.720
4.890,-0.200,0.240,0.500,-0.710
4.892,-0.200,0.230,0.500,-0.710
4.894,-0.200,0.230,0.500,-0.720
4.896,-0.190,0.240,0.500,-0.730
4.898,-0.180,0.260,0.480,-0.740
4.900,-0.170,0.280,0.480,-0.730
4.902,-0.170,0.260,0.460,-0.710
4.904,-0.170,0.220,0.440,-0.700
4.906,-0.180,0.200,0.430,-0.700
4.908,-0.160,0.200,0.420,-0.700
4.910,-0.150,0.200,0.420,-0.680
4.912,-0.140,0.210,0.410,-0.680
4.914,-0.130,0.240,0.410,-0.680
4.916,-0.100,0.250,0.420,-0.680
4.918,-0.080,0.260,0.450,-0.680
4.920,-0.070,0.240,0.420,-0.640
4.922,-0.030,0.210,0.370,-0.610
4.924,0.000,0.190,0.330,-0.580
4.926,0.040,0.170,0.260,-0.510
4.928,0.080,0.170,0.220,-0.450
4.930,0.070,0.130,0.190,-0.410
4.932,0.020,0.060,0.140,-0.390
4.934,-0.010,0.010,0.130,-0.390
4.936,-0.030,0.020,0.150,-0.400
4.938,-0.030,0.050,0.200,-0.420
4.940,-0.020,0.080,0.240,-0.440
4.942,-0.030,0.120,0.280,-0.480
4.944,-0.070,0.150,0.310,-0.530
4.946,-0.090,0.150,0.340,-0.560
4.948,-0.120,0.150,0.360,-0.580
4.950,-0.130,0.140,0.380,-0.570
4.952,-0.150,0.120,0.390,-0.550
4.954,-0.160,0.120,0.390,-0.530
4.956,-0.170,0.120,0.390,-0.530
4.958,-0.180,0.120,0.380,-0.510
4.960,-0.200,0.110,0.360,-0.490
4.962,-0.210,0.080,0.340,-0.480
4.964,-0.220,0.060,0.330,-0.450
4.966,-0.230,0.030,0.320,-0.430
4.968,-0.250,0.020,0.290,-0.400
4.970,-0.250,0.020,0.260,-0.380
4.972,-0.260,0.020,0.260,-0.350
4.974,-0.270,0.010,0.270,-0.340
4.976,-0.280,0.000,0.260,-0.320
4.978,-0.300,0.000,0.240,-0.290
4.980,-0.310,0.000,0.240,-0.270
4.982,-0.310,0.000,0.240,-0.250
4.984,-0.300,0.020,0.260,-0.230
4.986,-0.300,0.040,0.260,-0.220
4.988,-0.280,0.040,0.260,-0.180
4.990,-0.270,0.040,0.250,-0.150
4.992,-0.270,0.050,0.240,-0.130
4.994,-0.270,0.050,0.250,-0.120
4.996,-0.270,0.060,0.250,-0.090
4.998,-0.270,0.080,0.240,-0.070
5.000,-0.280,0.090,0.230,-0.050
5.002,-0.270,0.100,0.220,-0.020
5.004,-0.280,0.100,0.220,0.000
5.006,-0.270,0.100,0.220,0.000
5.008,-0.260,0.100,0.220,0.010
5.010,-0.260,0.090,0.220,0.010
5.012,-0.250,0.120,0.210,0.020
5.014,-0.250,0.140,0.200,0.020
5.016,-0.230,0.140,0.190,0.050
5.018,-0.210,0.130,0.180,0.080
5.020,-0.190,0.140,0.170,0.100
5.022,-0.180,0.150,0.170,0.100
5.024,-0.180,0.170,0.170,0.110
5.026,-0.200,0.190,0.170,0.090
5.028,-0.210,0.220,0.180,0.080
5.030,-0.180,0.230,0.180,0.110
5.032,-0.150,0.230,0.170,0.150
5.034,-0.110,0.220,0.160,0.190
5.036,-0.080,0.220,0.140,0.230
5.038,-0.060,0.220,0.130,0.270
5.040,-0.050,0.240,0.130,0.310
5.042,-0.060,0.260,0.140,0.390
5.044,-0.050,0.260,0.130,0.440
5.046,-0.040,0.260,0.130,0.430
5.048,-0.030,0.260,0.120,0.400
5.050,0.000,0.250,0.110,0.350
5.052,0.030,0.230,0.110,0.260
5.054,0.040,0.240,0.110,0.140
5.056,0.030,0.250,0.110,0.050
5.058,0.030,0.250,0.120,0.000
5.060,0.000,0.260,0.120,-0.040
5.062,-0.010,0.270,0.120,-0.060
5.064,-0.020,0.280,0.110,-0.080
5.066,-0.030,0.260,0.090,-0.070
5.068,-0.050,0.260,0.100,-0.070
5.070,-0.080,0.270,0.110,-0.090
5.072,-0.110,0.250,0.100,-0.080
5.074,-0.130,0.230,0.100,-0.060
5.076,-0.160,0.220,0.100,-0.050
5.078,-0.190,0.210,0.100,-0.040
5.080,-0.200,0.200,0.100,-0.030
5.082,-0.220,0.220,0.100,-0.030
5.084,-0.240,0.220,0.100,-0.040
5.086,-0.250,0.200,0.080,-0.030
5.088,-0.270,0.170,0.070,-0.010
5.090,-0.280,0.160,0.050,-0.010
5.092,-0.300,0.140,0.040,0.000
5.094,-0.330,0.120,0.030,0.000
5.096,-0.350,0.120,0.030,-0.010
5.098,-0.370,0.120,0.030,-0.030
5.100,-0.380,0.100,0.020,-0.020
5.102,-0.370,0.080,0.000,0.000
5.104,-0.370,0.060,0.000,0.010
5.106,-0.380,0.040,-0.020,0.030
5.108,-0.390,0.020,-0.040,0.040
5.110,-0.410,0.030,-0.040,0.020
5.112,-0.420,0.050,-0.020,-0.010
5.114,-0.410,0.040,-0.010,-0.020
5.116,-0.390,0.020,-0.010,0.000
5.118,-0.370,-0.010,-0.030,0.040
5.120,-0.360,-0.040,-0.050,0.050
5.122,-0.350,-0.060,-0.060,0.060
5.124,-0.360,-0.070,-0.050,0.040
5.126,-0.370,-0.060,-0.040,0.010
5.128,-0.370,-0.060,-0.040,0.010
5.130,-0.340,-0.080,-0.060,0.020
5.132,-0.320,-0.120,-0.080,0.050
5.134,-0.310,-0.140,-0.110,0.080
5.136,-0.290,-0.160,-0.120,0.090
5.138,-0.280,-0.150,-0.110,0.080
5.140,-0.310,-0.130,-0.100,0.050
5.142,-0.320,-0.130,-0.120,0.070
5.144,-0.310,-0.140,-0.120,0.080
5.146,-0.310,-0.160,-0.120,0.080
5.148,-0.300,-0.160,-0.140,0.090
5.150,-0.290,-0.170,-0.160,0.110
5.152,-0.280,-0.160,-0.160,0.110
5.154,-0.290,-0.130,-0.140,0.070
5.156,-0.270,-0.130,-0.160,0.070
5.158,-0.250,-0.150,-0.180,0.090
5.160,-0.240,-0.170,-0.190,0.110
5.162,-0.260,-0.190,-0.200,0.120
5.164,-0.270,-0.210,-0.210,0.130
5.166,-0.270,-0.220,-0.220,0.130
5.168,-0.270,-0.210,-0.200,0.130
5.170,-0.250,-0.200,-0.200,0.150
5.172,-0.230,-0.220,-0.230,0.170
5.174,-0.220,-0.240,-0.260,0.180
5.176,-0.230,-0.250,-0.270,0.200
5.178,-0.230,-0.250,-0.270,0.200
5.180,-0.230,-0.220,-0.270,0.210
5.182,-0.230,-0.200,-0.280,0.210
5.184,-0.210,-0.190,-0.280,0.230
5.186,-0.180,-0.200,-0.280,0.250
5.188,-0.170,-0.200,-0.290,0.250
5.190,-0.150,-0.200,-0.280,0.250
5.192,-0.150,-0.180,-0.280,0.250
5.194,-0.160,-0.160,-0.260,0.230
5.196,-0.190,-0.140,-0.240,0.190
5.198,-0.190,-0.140,-0.250,0.200
5.200,-0.160,-0.150,-0.270,0.230
5.202,-0.130,-0.150,-0.280,0.250
5.204,-0.120,-0.140,-0.280,0.270
5.206,-0.110,-0.140,-0.290,0.290
5.208,-0.130,-0.130,-0.300,0.280
5.210,-0.150,-0.100,-0.290,0.230
5.212,-0.170,-0.100,-0.280,0.210
5.214,-0.170,-0.120,-0.300,0.230
5.216,-0.160,-0.140,-0.330,0.270
5.218,-0.160,-0.170,-0.370,0.300
5.220,-0.160,-0.210,-0.400,0.330
5.222,-0.180,-0.240,-0.450,0.350
5.224,-0.200,-0.260,-0.500,0.370
5.226,-0.220,-0.330,-0.570,0.410
5.228,-0.240,-0.380,-0.610,0.440
5.230,-0.240,-0.400,-0.630,0.450
5.232,-0.210,-0.350,-0.600,0.470
5.234,-0.130,-0.230,-0.500,0.490
5.236,-0.020,-0.050,-0.360,0.480
5.238,0.110,0.190,-0.160,0.440
5.240,0.310,0.510,0.050,0.460
5.242,0.590,0.900,0.290,0.530
5.244,0.950,1.340,0.540,0.600
5.246,1.340,1.810,0.820,0.690
5.248,1.770,2.300,1.110,0.800
5.250,2.220,2.820,1.400,0.900
5.252,2.620,3.300,1.660,0.970
5.254,2.950,3.630,1.820,1.040
5.256,3.170,3.790,1.890,1.100
5.258,3.250,3.830,1.890,1.140
5.260,3.190,3.720,1.810,1.130
5.262,2.910,3.400,1.680,0.990
5.264,2.420,2.950,1.530,0.720
5.266,1.880,2.490,1.360,0.460
5.268,1.400,2.040,1.160,0.260
5.270,1.020,1.630,0.950,0.140
5.272,0.690,1.260,0.740,0.060
5.274,0.420,0.940,0.540,0.020
5.276,0.200,0.650,0.350,0.000
5.278,0.020,0.400,0.180,0.000
5.280,-0.120,0.190,0.040,-0.010
5.282,-0.230,0.000,-0.100,0.010
5.284,-0.320,-0.180,-0.240,0.060
5.286,-0.390,-0.330,-0.370,0.100
5.288,-0.460,-0.470,-0.480,0.110
5.290,-0.510,-0.570,-0.570,0.130
5.292,-0.570,-0.660,-0.630,0.120
5.294,-0.630,-0.710,-0.660,0.100
5.296,-0.660,-0.770,-0.690,0.090
5.298,-0.680,-0.820,-0.720,0.110
5.300,-0.690,-0.860,-0.750,0.140
5.302,-0.700,-0.890,-0.750,0.160
5.304,-0.700,-0.900,-0.760,0.170
5.306,-0.710,-0.900,-0.760,0.170
5.308,-0.740,-0.870,-0.740,0.140
5.310,-0.760,-0.870,-0.730,0.110
5.312,-0.780,-0.850,-0.720,0.100
5.314,-0.790,-0.840,-0.720,0.090
5.316,-0.800,-0.830,-0.710,0.090
5.318,-0.800,-0.830,-0.700,0.110
5.320,-0.780,-0.810,-0.670,0.110
5.322,-0.780,-0.780,-0.650,0.100
5.324,-0.770,-0.770,-0.640,0.110
5.326,-0.760,-0.760,-0.620,0.110
5.328,-0.750,-0.740,-0.610,0.090
5.330,-0.730,-0.720,-0.580,0.080
5.332,-0.690,-0.700,-0.550,0.090
5.334,-0.650,-0.670,-0.530,0.090
5.336,-0.630,-0.630,-0.500,0.070
5.338,-0.610,-0.610,-0.490,0.050
5.340,-0.590,-0.610,-0.490,0.050
5.342,-0.570,-0.600,-0.490,0.040
5.344,-0.550,-0.590,-0.480,0.040
5.346,-0.530,-0.590,-0.480,0.030
5.348,-0.510,-0.580,-0.470,0.030
5.350,-0.510,-0.550,-0.460,0.030
5.352,-0.490,-0.530,-0.460,0.050
5.354,-0.460,-0.530,-0.460,0.050
5.356,-0.430,-0.540,-0.470,0.060
5.358,-0.410,-0.550,-0.500,0.040
5.360,-0.410,-0.550,-0.500,0.000
5.362,-0.410,-0.550,-0.500,-0.020
5.364,-0.400,-0.560,-0.530,-0.020
5.366,-0.370,-0.610,-0.560,0.000
5.368,-0.350,-0.650,-0.580,0.020
5.370,-0.350,-0.650,-0.600,0.000
5.372,-0.330,-0.680,-0.630,-0.010
5.374,-0.310,-0.710,-0.660,-0.010
5.376,-0.310,-0.710,-0.680,-0.030
5.378,-0.330,-0.680,-0.680,-0.080
5.380,-0.330,-0.680,-0.700,-0.110
5.382,-0.300,-0.710,-0.730,-0.090
5.384,-0.270,-0.740,-0.770,-0.060
5.386,-0.250,-0.760,-0.790,-0.070
5.388,-0.240,-0.790,-0.800,-0.090
5.390,-0.210,-0.810,-0.820,-0.100
5.392,-0.200,-0.810,-0.830,-0.110
5.394,-0.190,-0.810,-0.830,-0.120
5.396,-0.180,-0.810,-0.820,-0.120
5.398,-0.160,-0.830,-0.820,-0.100
5.400,-0.140,-0.840,-0.830,-0.080
5.402,-0.130,-0.820,-0.810,-0.080
5.404,-0.130,-0.800,-0.780,-0.100
5.406,-0.130,-0.770,-0.750,-0.120
5.408,-0.120,-0.750,-0.720,-0.110
5.410,-0.120,-0.720,-0.670,-0.120
5.412,-0.110,-0.680,-0.630,-0.150
5.414,-0.080,-0.650,-0.600,-0.150
5.416,-0.060,-0.620,-0.580,-0.140
5.418,-0.040,-0.570,-0.540,-0.120
5.420,-0.030,-0.510,-0.490,-0.130
5.422,0.000,-0.470,-0.450,-0.130
5.424,0.040,-0.460,-0.420,-0.110
5.426,0.060,-0.430,-0.390,-0.100
5.428,0.070,-0.390,-0.340,-0.110
5.430,0.090,-0.350,-0.280,-0.130
5.432,0.130,-0.320,-0.260,-0.090
5.434,0.160,-0.280,-0.260,-0.060
5.436,0.200,-0.240,-0.240,-0.040
5.438,0.230,-0.220,-0.230,-0.020
5.440,0.250,-0.220,-0.240,0.000
5.442,0.280,-0.220,-0.240,0.030
5.444,0.280,-0.200,-0.240,0.030
5.446,0.260,-0.190,-0.260,0.020
5.448,0.270,-0.200,-0.300,0.040
5.450,0.290,-0.230,-0.350,0.080
5.452,0.290,-0.260,-0.390,0.100
5.454,0.290,-0.290,-0.420,0.100
5.456,0.300,-0.330,-0.470,0.100
5.458,0.310,-0.380,-0.530,0.110
5.460,0.290,-0.410,-0.580,0.090
5.462,0.270,-0.410,-0.610,0.050
5.464,0.270,-0.430,-0.650,0.040
5.466,0.270,-0.470,-0.690,0.050
5.468,0.260,-0.500,-0.720,0.060
5.470,0.240,-0.510,-0.740,0.050
5.472,0.230,-0.520,-0.750,0.030
5.474,0.210,-0.560,-0.780,0.030
5.476,0.170,-0.580,-0.800,0.030
5.478,0.150,-0.590,-0.810,0.020
5.480,0.120,-0.610,-0.810,0.030
5.482,0.120,-0.630,-0.810,0.060
5.484,0.120,-0.640,-0.800,0.080
5.486,0.110,-0.630,-0.750,0.040
5.488,0.080,-0.620,-0.700,-0.020
5.490,0.060,-0.620,-0.650,-0.080
5.492,0.040,-0.600,-0.600,-0.140
5.494,0.010,-0.570,-0.530,-0.210
5.496,0.000,-0.530,-0.470,-0.270
5.498,-0.010,-0.520,-0.430,-0.310
5.500,-0.030,-0.520,-0.380,-0.340
5.502,-0.060,-0.480,-0.320,-0.380
5.504,-0.100,-0.440,-0.270,-0.440
5.506,-0.120,-0.410,-0.220,-0.480
5.508,-0.130,-0.400,-0.170,-0.490
5.510,-0.150,-0.360,-0.110,-0.500
5.512,-0.170,-0.310,-0.060,-0.540
5.514,-0.180,-0.290,-0.030,-0.550
5.516,-0.180,-0.290,-0.010,-0.540
5.518,-0.180,-0.250,0.020,-0.540
5.520,-0.180,-0.220,0.040,-0.530
5.522,-0.180,-0.200,0.070,-0.510
5.524,-0.190,-0.200,0.090,-0.470
5.526,-0.200,-0.190,0.100,-0.450
5.528,-0.210,-0.170,0.110,-0.440
5.530,-0.220,-0.160,0.120,-0.410
5.532,-0.230,-0.140,0.130,-0.370
5.534,-0.230,-0.130,0.140,-0.330
5.536,-0.230,-0.130,0.140,-0.290
5.538,-0.230,-0.130,0.140,-0.260
5.540,-0.230,-0.160,0.130,-0.220
5.542,-0.240,-0.170,0.110,-0.210
5.544,-0.260,-0.160,0.100,-0.240
5.546,-0.270,-0.140,0.100,-0.280
5.548,-0.270,-0.140,0.090,-0.310
5.550,-0.250,-0.160,0.070,-0.300
5.552,-0.250,-0.170,0.060,-0.300
5.554,-0.260,-0.180,0.040,-0.300
5.556,-0.260,-0.180,0.010,-0.300
5.558,-0.260,-0.190,0.000,-0.300
5.560,-0.270,-0.170,-0.010,-0.340
5.562,-0.280,-0.170,-0.020,-0.390
5.564,-0.280,-0.200,-0.050,-0.420
5.566,-0.280,-0.220,-0.090,-0.430
5.568,-0.270,-0.220,-0.110,-0.440
5.570,-0.270,-0.220,-0.120,-0.440
5.572,-0.270,-0.220,-0.130,-0.450
5.574,-0.280,-0.220,-0.140,-0.450
5.576,-0.300,-0.220,-0.150,-0.450
5.578,-0.310,-0.220,-0.150,-0.430
5.580,-0.300,-0.220,-0.170,-0.390
5.582,-0.280,-0.230,-0.200,-0.340
5.584,-0.270,-0.240,-0.200,-0.280
5.586,-0.260,-0.240,-0.200,-0.250
5.588,-0.260,-0.210,-0.190,-0.230
5.590,-0.250,-0.200,-0.200,-0.210
5.592,-0.250,-0.210,-0.200,-0.200
5.594,-0.270,-0.210,-0.180,-0.190
5.596,-0.280,-0.210,-0.170,-0.190
5.598,-0.260,-0.210,-0.160,-0.160
5.600,-0.240,-0.200,-0.160,-0.130
5.602,-0.230,-0.170,-0.160,-0.120
5.604,-0.210,-0.150,-0.160,-0.120
5.606,-0.200,-0.160,-0.160,-0.100
5.608,-0.190,-0.160,-0.140,-0.100
5.610,-0.200,-0.150,-0.110,-0.110
5.612,-0.210,-0.130,-0.090,-0.110
5.614,-0.200,-0.120,-0.070,-0.080
5.616,-0.190,-0.100,-0.050,-0.060
5.618,-0.180,-0.080,-0.040,-0.060
5.620,-0.170,-0.070,-0.030,-0.060
5.622,-0.150,-0.080,-0.020,-0.060
5.624,-0.140,-0.070,-0.010,-0.050
5.626,-0.150,-0.040,0.000,-0.050
5.628,-0.160,0.000,0.010,-0.060
5.630,-0.160,0.020,0.030,-0.090
5.632,-0.140,0.030,0.040,-0.080
5.634,-0.100,0.020,0.040,-0.050
5.636,-0.070,0.030,0.050,-0.040
5.638,-0.060,0.030,0.060,-0.030
5.640,-0.040,0.020,0.060,-0.010
5.642,-0.060,0.020,0.060,-0.020
5.644,-0.080,0.050,0.070,-0.040
5.646,-0.080,0.080,0.090,-0.050
5.648,-0.070,0.070,0.100,-0.030
5.650,-0.060,0.070,0.090,0.000
5.652,-0.050,0.070,0.070,0.000
5.654,-0.050,0.070,0.070,0.000
5.656,-0.050,0.080,0.070,0.000
5.658,-0.060,0.080,0.080,0.000
5.660,-0.070,0.090,0.080,0.000
5.662,-0.080,0.090,0.080,-0.010
5.664,-0.060,0.080,0.070,0.000
5.666,-0.040,0.080,0.060,0.010
5.668,-0.020,0.080,0.050,0.020
5.670,-0.010,0.080,0.040,0.010
5.672,-0.010,0.090,0.040,-0.010
5.674,-0.020,0.080,0.050,-0.010
5.676,-0.030,0.070,0.060,0.000
5.678,-0.030,0.060,0.060,0.000
5.680,-0.040,0.060,0.040,0.000
5.682,-0.040,0.040,0.010,0.030
5.684,-0.020,0.030,0.000,0.050
5.686,0.000,0.030,-0.010,0.050
5.688,0.000,0.030,-0.020,0.040
5.690,0.000,0.010,-0.030,0.050
5.692,0.000,0.000,-0.030,0.060
5.694,0.000,0.000,-0.030,0.060
5.696,0.000,0.000,-0.040,0.060
5.698,0.010,-0.010,-0.060,0.070
5.700,0.020,0.000,-0.070,0.070
5.702,0.010,0.000,-0.080,0.070
5.704,0.020,-0.010,-0.100,0.080
5.706,0.020,-0.030,-0.110,0.080
5.708,0.020,-0.040,-0.120,0.080
5.710,0.010,-0.040,-0.130,0.080
5.712,0.000,-0.040,-0.130,0.070
5.714,0.000,-0.050,-0.140,0.070
5.716,-0.010,-0.050,-0.140,0.070
5.718,0.000,-0.050,-0.150,0.080
5.720,0.000,-0.060,-0.170,0.080
5.722,0.000,-0.070,-0.190,0.080
5.724,0.000,-0.090,-0.200,0.070
5.726,-0.010,-0.080,-0.200,0.050
5.728,-0.010,-0.060,-0.190,0.030
5.730,-0.010,-0.050,-0.190,0.040
5.732,0.000,-0.070,-0.210,0.060
5.734,0.000,-0.080,-0.210,0.070
5.736,0.010,-0.100,-0.200,0.080
5.738,0.020,-0.110,-0.200,0.080
5.740,0.030,-0.120,-0.190,0.080
5.742,0.020,-0.110,-0.190,0.070
5.744,0.000,-0.090,-0.200,0.050
5.746,-0.010,-0.090,-0.210,0.040
5.748,0.000,-0.100,-0.220,0.040
5.750,0.000,-0.100,-0.230,0.060
5.752,0.010,-0.110,-0.240,0.070
5.754,0.020,-0.110,-0.230,0.060
5.756,0.020,-0.090,-0.210,0.040
5.758,0.000,-0.080,-0.200,0.030
5.760,-0.020,-0.060,-0.190,0.030
5.762,-0.020,-0.050,-0.170,0.020
5.764,-0.010,-0.050,-0.170,0.030
5.766,0.000,-0.060,-0.170,0.050
5.768,0.010,-0.070,-0.170,0.060
5.770,0.020,-0.050,-0.150,0.040
5.772,0.030,-0.040,-0.140,0.020
5.774,0.060,-0.060,-0.150,0.030
5.776,0.050,-0.070,-0.150,0.030
5.778,0.040,-0.060,-0.130,0.030
5.780,0.030,-0.060,-0.120,0.030
5.782,0.030,-0.060,-0.120,0.030
5.784,0.030,-0.040,-0.110,0.020
5.786,0.020,-0.040,-0.110,0.010
5.788,0.030,-0.040,-0.110,0.010
5.790,0.030,-0.050,-0.100,0.010
5.792,0.020,-0.050,-0.090,0.010
5.794,0.010,-0.050,-0.080,0.000
5.796,0.010,-0.050,-0.080,-0.010
5.798,0.010,-0.020,-0.070,-0.020
5.800,0.000,0.000,-0.060,-0.030
5.802,0.000,-0.010,-0.060,0.000
5.804,0.010,-0.020,-0.070,0.000
5.806,0.020,-0.030,-0.080,0.010
5.808,0.020,-0.040,-0.070,0.000
5.810,0.010,-0.040,-0.070,-0.010
5.812,0.000,-0.030,-0.060,-0.030
5.814,-0.010,-0.020,-0.050,-0.050
5.816,0.000,-0.010,-0.030,-0.050
5.818,0.000,-0.010,-0.020,-0.030
5.820,0.010,-0.010,-0.020,-0.010
5.822,0.030,-0.010,-0.020,-0.010
5.824,0.040,-0.010,-0.010,-0.010
5.826,0.020,0.000,0.000,-0.010
5.828,0.010,0.020,0.010,-0.020
5.830,0.020,0.040,0.010,-0.020
5.832,0.040,0.030,0.010,-0.010
5.834,0.050,0.030,0.000,0.000
5.836,0.060,0.020,0.000,0.000
5.838,0.060,0.010,-0.020,0.000
5.840,0.050,0.010,-0.020,0.000
5.842,0.030,0.020,-0.010,-0.020
5.844,0.020,0.020,-0.020,-0.030
5.846,0.030,0.010,-0.030,-0.030
5.848,0.060,0.010,-0.040,-0.010
5.850,0.070,0.000,-0.050,0.000
5.852,0.080,0.000,-0.070,0.020
5.854,0.070,0.000,-0.080,0.030
5.856,0.060,0.000,-0.090,0.010
5.858,0.060,-0.020,-0.100,0.010
5.860,0.050,-0.040,-0.110,0.010
5.862,0.050,-0.050,-0.120,0.020
5.864,0.040,-0.050,-0.130,0.020
5.866,0.040,-0.060,-0.160,0.040
5.868,0.050,-0.060,-0.170,0.060
5.870,0.040,-0.060,-0.170,0.040
5.872,0.040,-0.070,-0.170,0.050
5.874,0.050,-0.070,-0.180,0.060
5.876,0.030,-0.070,-0.180,0.060
5.878,0.020,-0.070,-0.190,0.060
5.880,0.030,-0.080,-0.190,0.050
5.882,0.030,-0.090,-0.190,0.050
5.884,0.030,-0.080,-0.200,0.050
5.886,0.030,-0.100,-0.220,0.060
5.888,0.030,-0.120,-0.250,0.070
5.890,0.050,-0.140,-0.270,0.090
5.892,0.050,-0.150,-0.290,0.090
5.894,0.040,-0.150,-0.290,0.090
5.896,0.050,-0.140,-0.280,0.100
5.898,0.050,-0.120,-0.280,0.100
5.900,0.060,-0.120,-0.290,0.110
5.902,0.060,-0.150,-0.290,0.140
5.904,0.070,-0.170,-0.290,0.150
5.906,0.070,-0.180,-0.300,0.150
5.908,0.050,-0.180,-0.310,0.150
5.910,0.010,-0.200,-0.320,0.130
5.912,-0.010,-0.200,-0.330,0.110
5.914,-0.040,-0.230,-0.360,0.100
5.916,-0.050,-0.270,-0.420,0.130
5.918,-0.060,-0.320,-0.500,0.180
5.920,-0.090,-0.390,-0.560,0.210
5.922,-0.130,-0.450,-0.590,0.220
5.924,-0.140,-0.450,-0.590,0.200
5.926,-0.130,-0.380,-0.530,0.180
5.928,-0.060,-0.240,-0.400,0.160
5.930,0.060,-0.030,-0.240,0.150
5.932,0.260,0.230,-0.060,0.190
5.934,0.550,0.580,0.130,0.280
5.936,0.900,0.990,0.360,0.370
5.938,1.290,1.460,0.620,0.460
5.940,1.690,1.970,0.920,0.550
5.942,2.130,2.500,1.240,0.630
5.944,2.590,3.050,1.540,0.720
5.946,3.030,3.560,1.800,0.820
5.948,3.410,3.940,1.990,0.920
5.950,3.690,4.170,2.080,1.020
5.952,3.840,4.270,2.110,1.080
5.954,3.850,4.240,2.060,1.080
5.956,3.670,3.990,1.910,1.000
5.958,3.250,3.550,1.730,0.800
5.960,2.660,3.000,1.520,0.520
5.962,2.060,2.440,1.320,0.250
5.964,1.530,1.930,1.090,0.050
5.966,1.090,1.490,0.860,-0.060
5.968,0.760,1.100,0.630,-0.130
5.970,0.490,0.740,0.420,-0.160
5.972,0.250,0.430,0.240,-0.190
5.974,0.040,0.170,0.070,-0.210
5.976,-0.110,-0.040,-0.070,-0.220
5.978,-0.250,-0.240,-0.200,-0.210
5.980,-0.360,-0.400,-0.320,-0.180
5.982,-0.440,-0.540,-0.420,-0.160
5.984,-0.510,-0.660,-0.500,-0.120
5.986,-0.570,-0.770,-0.570,-0.100
5.988,-0.620,-0.860,-0.630,-0.100
5.990,-0.660,-0.940,-0.660,-0.090
5.992,-0.720,-0.990,-0.690,-0.080
5.994,-0.760,-1.020,-0.720,-0.070
5.996,-0.790,-1.040,-0.750,-0.080
5.998,-0.800,-1.070,-0.780,-0.060
6.000,-0.800,-1.080,-0.800,-0.030
6.002,-0.780,-1.100,-0.810,-0.010
6.004,-0.760,-1.120,-0.820,0.000
6.006,-0.750,-1.130,-0.830,-0.010
6.008,-0.760,-1.120,-0.830,0.000
6.010,-0.770,-1.090,-0.820,-0.010
6.012,-0.760,-1.080,-0.820,-0.010
6.014,-0.740,-1.070,-0.820,0.000
6.016,-0.710,-1.070,-0.820,0.000
6.018,-0.700,-1.070,-0.830,0.010
6.020,-0.680,-1.070,-0.830,0.020
6.022,-0.660,-1.050,-0.810,0.030
6.024,-0.650,-1.010,-0.790,0.040
6.026,-0.650,-0.980,-0.770,0.030
6.028,-0.640,-0.970,-0.770,0.040
6.030,-0.630,-0.970,-0.760,0.050
6.032,-0.610,-0.950,-0.760,0.070
6.034,-0.600,-0.930,-0.760,0.090
6.036,-0.580,-0.920,-0.760,0.080
6.038,-0.570,-0.900,-0.750,0.040
6.040,-0.570,-0.880,-0.730,0.040
6.042,-0.570,-0.860,-0.720,0.050
6.044,-0.560,-0.850,-0.700,0.040
6.046,-0.540,-0.830,-0.700,0.030
6.048,-0.530,-0.810,-0.690,0.020
6.050,-0.520,-0.790,-0.680,0.020
6.052,-0.510,-0.760,-0.680,0.020
6.054,-0.500,-0.760,-0.680,0.040
6.056,-0.480,-0.760,-0.680,0.050
6.058,-0.470,-0.750,-0.680,0.070
6.060,-0.450,-0.730,-0.670,0.070
6.062,-0.430,-0.720,-0.670,0.060
6.064,-0.410,-0.710,-0.660,0.050
6.066,-0.410,-0.690,-0.650,0.040
6.068,-0.390,-0.680,-0.650,0.050
6.070,-0.380,-0.690,-0.650,0.060
6.072,-0.370,-0.690,-0.650,0.070
6.074,-0.350,-0.680,-0.620,0.070
6.076,-0.350,-0.680,-0.600,0.080
6.078,-0.340,-0.660,-0.590,0.060
6.080,-0.330,-0.630,-0.600,0.030
6.082,-0.310,-0.620,-0.610,0.050
6.084,-0.300,-0.630,-0.620,0.090
6.086,-0.280,-0.640,-0.620,0.120
6.088,-0.280,-0.650,-0.610,0.130
6.090,-0.260,-0.650,-0.620,0.140
6.092,-0.260,-0.630,-0.630,0.140
6.094,-0.280,-0.620,-0.630,0.120
6.096,-0.280,-0.610,-0.630,0.120
6.098,-0.260,-0.610,-0.640,0.130
6.100,-0.250,-0.620,-0.660,0.160
6.102,-0.220,-0.620,-0.680,0.170
6.104,-0.210,-0.620,-0.690,0.180
6.106,-0.190,-0.610,-0.690,0.180
6.108,-0.180,-0.590,-0.690,0.180
6.110,-0.180,-0.590,-0.690,0.200
6.112,-0.180,-0.590,-0.690,0.220
6.114,-0.160,-0.600,-0.700,0.240
6.116,-0.160,-0.600,-0.710,0.260
6.118,-0.140,-0.610,-0.720,0.300
6.120,-0.130,-0.610,-0.730,0.310
6.122,-0.120,-0.590,-0.730,0.310
6.124,-0.100,-0.570,-0.750,0.320
6.126,-0.100,-0.560,-0.750,0.320
6.128,-0.090,-0.550,-0.750,0.330
6.130,-0.080,-0.540,-0.750,0.360
6.132,-0.050,-0.550,-0.760,0.390
6.134,-0.030,-0.550,-0.780,0.400
6.136,-0.020,-0.540,-0.790,0.400
6.138,0.000,-0.540,-0.780,0.390
6.140,0.000,-0.530,-0.770,0.390
6.142,0.020,-0.520,-0.770,0.400
6.144,0.030,-0.520,-0.760,0.410
6.146,0.040,-0.510,-0.770,0.420
6.148,0.040,-0.510,-0.760,0.440
6.150,0.030,-0.490,-0.750,0.440
6.152,0.030,-0.490,-0.740,0.440
6.154,0.040,-0.490,-0.740,0.440
6.156,0.040,-0.490,-0.740,0.430
6.158,0.030,-0.480,-0.740,0.410
6.160,0.020,-0.470,-0.720,0.390
6.162,0.010,-0.460,-0.710,0.370
6.164,0.010,-0.440,-0.680,0.340
6.166,0.010,-0.430,-0.660,0.330
6.168,0.010,-0.430,-0.640,0.330
6.170,0.020,-0.430,-0.630,0.330
6.172,0.010,-0.430,-0.610,0.300
6.174,0.000,-0.410,-0.590,0.250
6.176,-0.010,-0.400,-0.560,0.210
6.178,-0.050,-0.360,-0.520,0.160
6.180,-0.060,-0.340,-0.480,0.110
6.182,-0.060,-0.340,-0.450,0.090
6.184,-0.080,-0.340,-0.410,0.070
6.186,-0.100,-0.340,-0.380,0.030
6.188,-0.120,-0.330,-0.340,0.000
6.190,-0.150,-0.310,-0.310,-0.050
6.192,-0.180,-0.280,-0.260,-0.120
6.194,-0.220,-0.250,-0.230,-0.170
6.196,-0.230,-0.240,-0.200,-0.200
6.198,-0.240,-0.240,-0.170,-0.220
6.200,-0.250,-0.250,-0.140,-0.230
6.202,-0.260,-0.250,-0.110,-0.260
6.204,-0.260,-0.240,-0.090,-0.290
6.206,-0.270,-0.210,-0.060,-0.330
6.208,-0.290,-0.190,-0.030,-0.340
6.210,-0.300,-0.170,-0.010,-0.360
6.212,-0.310,-0.170,0.000,-0.370
6.214,-0.300,-0.170,0.000,-0.380
6.216,-0.290,-0.170,0.000,-0.370
6.218,-0.280,-0.180,0.000,-0.360
6.220,-0.290,-0.170,0.010,-0.380
6.222,-0.310,-0.170,0.030,-0.400
6.224,-0.320,-0.170,0.040,-0.410
6.226,-0.340,-0.170,0.050,-0.420
6.228,-0.340,-0.170,0.050,-0.430
6.230,-0.310,-0.160,0.060,-0.430
6.232,-0.290,-0.160,0.070,-0.420
6.234,-0.280,-0.140,0.070,-0.420
6.236,-0.290,-0.140,0.070,-0.420
6.238,-0.290,-0.150,0.050,-0.410
6.240,-0.300,-0.150,0.030,-0.400
6.242,-0.310,-0.140,0.030,-0.400
6.244,-0.310,-0.150,0.030,-0.410
6.246,-0.300,-0.150,0.030,-0.410
6.248,-0.300,-0.110,0.020,-0.420
6.250,-0.290,-0.100,0.010,-0.410
6.252,-0.270,-0.110,0.020,-0.390
6.254,-0.270,-0.130,0.020,-0.390
6.256,-0.260,-0.140,0.010,-0.380
6.258,-0.260,-0.150,0.010,-0.370
6.260,-0.270,-0.150,0.010,-0.380
6.262,-0.290,-0.130,0.010,-0.400
6.264,-0.300,-0.130,0.010,-0.400
6.266,-0.290,-0.140,0.010,-0.390
6.268,-0.280,-0.150,0.010,-0.370
6.270,-0.280,-0.160,0.000,-0.360
6.272,-0.270,-0.170,0.000,-0.340
6.274,-0.270,-0.180,0.000,-0.330
6.276,-0.290,-0.170,0.000,-0.350
6.278,-0.300,-0.160,0.010,-0.370
6.280,-0.290,-0.170,0.020,-0.380
6.282,-0.280,-0.190,0.020,-0.370
6.284,-0.280,-0.200,0.010,-0.350
6.286,-0.270,-0.200,0.000,-0.340
6.288,-0.270,-0.210,0.000,-0.330
6.290,-0.270,-0.200,0.000,-0.330
6.292,-0.280,-0.180,0.000,-0.340
6.294,-0.280,-0.180,0.000,-0.340
6.296,-0.280,-0.190,-0.020,-0.330
6.298,-0.260,-0.210,-0.050,-0.320
6.300,-0.250,-0.220,-0.060,-0.300
6.302,-0.250,-0.230,-0.060,-0.290
6.304,-0.260,-0.210,-0.070,-0.300
6.306,-0.270,-0.190,-0.070,-0.300
6.308,-0.260,-0.190,-0.070,-0.300
6.310,-0.260,-0.190,-0.060,-0.290
6.312,-0.240,-0.200,-0.060,-0.290
6.314,-0.230,-0.210,-0.050,-0.290
6.316,-0.230,-0.210,-0.060,-0.260
6.318,-0.230,-0.210,-0.050,-0.250
6.320,-0.220,-0.210,-0.040,-0.250
6.322,-0.220,-0.230,-0.050,-0.250
6.324,-0.220,-0.230,-0.060,-0.250
6.326,-0.220,-0.230,-0.070,-0.260
6.328,-0.210,-0.240,-0.080,-0.260
6.330,-0.190,-0.250,-0.090,-0.260
6.332,-0.190,-0.240,-0.090,-0.260
6.334,-0.200,-0.220,-0.090,-0.240
6.336,-0.190,-0.210,-0.090,-0.220
6.338,-0.180,-0.220,-0.090,-0.220
6.340,-0.180,-0.230,-0.090,-0.230
6.342,-0.180,-0.220,-0.090,-0.230
6.344,-0.190,-0.200,-0.100,-0.230
6.346,-0.190,-0.180,-0.080,-0.230
6.348,-0.190,-0.180,-0.080,-0.230
6.350,-0.180,-0.180,-0.080,-0.220
6.352,-0.160,-0.190,-0.080,-0.220
6.354,-0.160,-0.200,-0.080,-0.220
6.356,-0.150,-0.220,-0.090,-0.230
6.358,-0.150,-0.220,-0.090,-0.240
6.360,-0.170,-0.210,-0.080,-0.260
6.362,-0.180,-0.200,-0.070,-0.280
6.364,-0.170,-0.200,-0.070,-0.280
6.366,-0.150,-0.210,-0.090,-0.270
6.368,-0.140,-0.210,-0.090,-0.250
6.370,-0.130,-0.210,-0.100,-0.240
6.372,-0.120,-0.210,-0.100,-0.240
6.374,-0.120,-0.200,-0.110,-0.250
6.376,-0.150,-0.180,-0.110,-0.260
6.378,-0.160,-0.180,-0.110,-0.260
6.380,-0.160,-0.200,-0.110,-0.250
6.382,-0.140,-0.220,-0.110,-0.230
6.384,-0.120,-0.220,-0.110,-0.220
6.386,-0.110,-0.230,-0.110,-0.220
6.388,-0.130,-0.220,-0.110,-0.250
6.390,-0.140,-0.210,-0.090,-0.270
6.392,-0.140,-0.210,-0.100,-0.280
6.394,-0.150,-0.220,-0.100,-0.270
6.396,-0.140,-0.230,-0.120,-0.260
6.398,-0.130,-0.240,-0.140,-0.250
6.400,-0.130,-0.240,-0.140,-0.230
6.402,-0.130,-0.240,-0.130,-0.220
6.404,-0.130,-0.240,-0.130,-0.240
6.406,-0.120,-0.250,-0.120,-0.250
6.408,-0.120,-0.240,-0.110,-0.260
6.410,-0.120,-0.240,-0.100,-0.260
6.412,-0.120,-0.240,-0.090,-0.260
6.414,-0.110,-0.220,-0.090,-0.260
6.416,-0.100,-0.200,-0.090,-0.250
6.418,-0.090,-0.180,-0.100,-0.250
6.420,-0.080,-0.180,-0.110,-0.250
6.422,-0.080,-0.190,-0.120,-0.240
6.424,-0.090,-0.190,-0.130,-0.230
6.426,-0.100,-0.190,-0.120,-0.230
6.428,-0.110,-0.180,-0.110,-0.230
6.430,-0.130,-0.170,-0.100,-0.250
6.432,-0.130,-0.150,-0.100,-0.270
6.434,-0.120,-0.160,-0.110,-0.270
6.436,-0.120,-0.160,-0.130,-0.260
6.438,-0.130,-0.160,-0.150,-0.260
6.440,-0.140,-0.160,-0.180,-0.260
6.442,-0.150,-0.170,-0.180,-0.260
6.444,-0.150,-0.150,-0.170,-0.270
6.446,-0.160,-0.140,-0.160,-0.290
6.448,-0.170,-0.130,-0.160,-0.300
6.450,-0.160,-0.140,-0.160,-0.280
6.452,-0.160,-0.140,-0.170,-0.270
6.454,-0.160,-0.150,-0.180,-0.270
6.456,-0.160,-0.160,-0.180,-0.270
6.458,-0.170,-0.150,-0.180,-0.280
6.460,-0.200,-0.130,-0.160,-0.300
6.462,-0.200,-0.130,-0.150,-0.310
6.464,-0.200,-0.130,-0.140,-0.310
6.466,-0.190,-0.140,-0.150,-0.300
6.468,-0.190,-0.150,-0.170,-0.290
6.470,-0.190,-0.150,-0.180,-0.280
6.472,-0.190,-0.150,-0.180,-0.290
6.474,-0.210,-0.140,-0.170,-0.310
6.476,-0.210,-0.140,-0.160,-0.310
6.478,-0.210,-0.140,-0.170,-0.310
6.480,-0.210,-0.150,-0.170,-0.310
6.482,-0.190,-0.150,-0.180,-0.300
6.484,-0.180,-0.150,-0.180,-0.280
6.486,-0.170,-0.150,-0.180,-0.280
6.488,-0.180,-0.140,-0.160,-0.300
6.490,-0.200,-0.150,-0.150,-0.310
6.492,-0.210,-0.150,-0.160,-0.310
6.494,-0.230,-0.150,-0.160,-0.320
6.496,-0.230,-0.150,-0.140,-0.320
6.498,-0.220,-0.130,-0.130,-0.320
6.500,-0.220,-0.110,-0.120,-0.300
6.502,-0.220,-0.090,-0.100,-0.310
6.504,-0.210,-0.090,-0.100,-0.300
6.506,-0.190,-0.110,-0.090,-0.290
6.508,-0.190,-0.100,-0.070,-0.280
6.510,-0.180,-0.080,-0.070,-0.280
6.512,-0.170,-0.070,-0.060,-0.280
6.514,-0.160,-0.060,-0.060,-0.280
6.516,-0.150,-0.050,-0.070,-0.280
6.518,-0.140,-0.050,-0.080,-0.260
6.520,-0.100,-0.060,-0.080,-0.250
6.522,-0.090,-0.070,-0.070,-0.240
6.524,-0.090,-0.070,-0.070,-0.240
6.526,-0.100,-0.060,-0.060,-0.240
6.528,-0.120,-0.040,-0.050,-0.240
6.530,-0.130,-0.030,-0.040,-0.240
6.532,-0.120,-0.030,-0.050,-0.230
6.534,-0.110,-0.050,-0.060,-0.220
6.536,-0.110,-0.060,-0.060,-0.210
6.538,-0.110,-0.080,-0.060,-0.210
6.540,-0.100,-0.100,-0.070,-0.200
6.542,-0.110,-0.110,-0.070,-0.190
6.544,-0.140,-0.090,-0.050,-0.210
6.546,-0.140,-0.100,-0.050,-0.220
6.548,-0.130,-0.110,-0.050,-0.210
6.550,-0.120,-0.100,-0.060,-0.190
6.552,-0.110,-0.100,-0.070,-0.160
6.554,-0.110,-0.080,-0.070,-0.150
6.556,-0.110,-0.060,-0.080,-0.170
6.558,-0.120,-0.030,-0.070,-0.180
6.560,-0.130,-0.030,-0.050,-0.180
6.562,-0.130,-0.020,-0.050,-0.170
6.564,-0.130,-0.040,-0.060,-0.170
6.566,-0.110,-0.050,-0.070,-0.160
6.568,-0.100,-0.050,-0.080,-0.150
6.570,-0.100,-0.050,-0.080,-0.160
6.572,-0.110,-0.030,-0.070,-0.170
6.574,-0.120,-0.030,-0.070,-0.160
6.576,-0.120,-0.030,-0.050,-0.150
6.578,-0.120,-0.030,-0.040,-0.140
6.580,-0.110,-0.040,-0.050,-0.130
6.582,-0.100,-0.050,-0.060,-0.140
6.584,-0.110,-0.060,-0.070,-0.130
6.586,-0.110,-0.060,-0.080,-0.130
6.588,-0.090,-0.080,-0.100,-0.140
6.590,-0.090,-0.100,-0.130,-0.130
6.592,-0.110,-0.130,-0.160,-0.130
6.594,-0.130,-0.170,-0.190,-0.120
6.596,-0.140,-0.230,-0.230,-0.090
6.598,-0.150,-0.280,-0.290,-0.060
6.600,-0.170,-0.300,-0.320,-0.040
6.602,-0.180,-0.300,-0.310,-0.020
6.604,-0.150,-0.250,-0.250,-0.020
6.606,-0.070,-0.110,-0.130,-0.050
6.608,0.040,0.110,0.040,-0.070
6.610,0.210,0.400,0.240,-0.070
6.612,0.470,0.770,0.470,-0.020
6.614,0.800,1.210,0.700,0.060
6.616,1.200,1.680,0.940,0.190
6.618,1.640,2.190,1.220,0.330
6.620,2.100,2.710,1.520,0.450
6.622,2.580,3.250,1.840,0.560
6.624,3.060,3.780,2.120,0.670
6.626,3.500,4.250,2.340,0.780
6.628,3.830,4.590,2.460,0.870
6.630,4.070,4.740,2.500,0.950
6.632,4.180,4.760,2.470,1.020
6.634,4.120,4.600,2.340,1.030
6.636,3.810,4.220,2.140,0.920
6.638,3.260,3.660,1.920,0.650
6.640,2.580,3.040,1.690,0.350
6.642,1.930,2.460,1.450,0.080
6.644,1.380,1.930,1.190,-0.100
6.646,0.950,1.460,0.940,-0.200
6.648,0.600,1.040,0.710,-0.260
6.650,0.310,0.690,0.490,-0.280
6.652,0.070,0.370,0.300,-0.270
6.654,-0.100,0.110,0.140,-0.280
6.656,-0.250,-0.090,0.000,-0.300
6.658,-0.400,-0.280,-0.110,-0.300
6.660,-0.530,-0.440,-0.220,-0.280
6.662,-0.630,-0.580,-0.310,-0.280
6.664,-0.710,-0.690,-0.390,-0.270
6.666,-0.780,-0.780,-0.470,-0.240
6.668,-0.820,-0.850,-0.530,-0.200
6.670,-0.860,-0.900,-0.550,-0.200
6.672,-0.900,-0.950,-0.580,-0.190
6.674,-0.910,-0.980,-0.600,-0.180
6.676,-0.940,-1.010,-0.620,-0.170
6.678,-0.950,-1.030,-0.630,-0.170
6.680,-0.950,-1.050,-0.630,-0.150
6.682,-0.940,-1.060,-0.640,-0.140
6.684,-0.940,-1.050,-0.650,-0.130
6.686,-0.930,-1.050,-0.660,-0.120
6.688,-0.930,-1.060,-0.660,-0.110
6.690,-0.910,-1.060,-0.650,-0.090
6.692,-0.900,-1.060,-0.650,-0.100
6.694,-0.900,-1.040,-0.630,-0.110
6.696,-0.890,-1.020,-0.630,-0.110
6.698,-0.890,-0.980,-0.610,-0.100
6.700,-0.880,-0.960,-0.600,-0.080
6.702,-0.860,-0.960,-0.610,-0.040
6.704,-0.840,-0.950,-0.600,-0.030
6.706,-0.810,-0.930,-0.590,-0.030
6.708,-0.790,-0.910,-0.590,-0.030
6.710,-0.780,-0.870,-0.580,-0.050
6.712,-0.780,-0.840,-0.570,-0.060
6.714,-0.750,-0.830,-0.570,-0.050
6.716,-0.720,-0.830,-0.570,-0.020
6.718,-0.680,-0.830,-0.570,0.010
6.720,-0.650,-0.830,-0.570,0.030
6.722,-0.630,-0.830,-0.570,0.030
6.724,-0.630,-0.810,-0.570,0.030
6.726,-0.630,-0.770,-0.560,0.020
6.728,-0.630,-0.750,-0.550,0.010
6.730,-0.590,-0.730,-0.540,0.020
6.732,-0.570,-0.710,-0.530,0.030
6.734,-0.560,-0.700,-0.510,0.050
6.736,-0.540,-0.690,-0.510,0.060
6.738,-0.530,-0.680,-0.510,0.050
6.740,-0.520,-0.660,-0.500,0.030
6.742,-0.530,-0.640,-0.480,0.030
6.744,-0.520,-0.620,-0.460,0.040
6.746,-0.490,-0.610,-0.460,0.050
6.748,-0.460,-0.600,-0.480,0.060
6.750,-0.450,-0.600,-0.480,0.080
6.752,-0.430,-0.590,-0.480,0.110
6.754,-0.430,-0.570,-0.470,0.110
6.756,-0.410,-0.560,-0.460,0.110
6.758,-0.410,-0.560,-0.450,0.130
6.760,-0.410,-0.560,-0.460,0.130
6.762,-0.400,-0.550,-0.480,0.130
6.764,-0.380,-0.540,-0.480,0.140
6.766,-0.360,-0.540,-0.480,0.160
6.768,-0.340,-0.520,-0.480,0.170
6.770,-0.320,-0.510,-0.480,0.180
6.772,-0.310,-0.520,-0.480,0.190
6.774,-0.300,-0.530,-0.480,0.210
6.776,-0.300,-0.530,-0.480,0.210
6.778,-0.300,-0.520,-0.480,0.210
6.780,-0.280,-0.500,-0.480,0.220
6.782,-0.280,-0.480,-0.480,0.230
6.784,-0.270,-0.470,-0.490,0.250
6.786,-0.230,-0.470,-0.510,0.290
6.788,-0.210,-0.480,-0.520,0.300
6.790,-0.200,-0.480,-0.530,0.320
6.792,-0.190,-0.480,-0.520,0.330
6.794,-0.180,-0.470,-0.510,0.340
6.796,-0.170,-0.460,-0.500,0.340
6.798,-0.170,-0.450,-0.490,0.350
6.800,-0.150,-0.450,-0.500,0.380
6.802,-0.110,-0.450,-0.510,0.410
6.804,-0.090,-0.450,-0.520,0.420
6.806,-0.060,-0.440,-0.530,0.430
6.808,-0.060,-0.420,-0.540,0.440
6.810,-0.050,-0.400,-0.530,0.440
6.812,-0.030,-0.380,-0.530,0.430
6.814,0.000,-0.390,-0.540,0.450
6.816,0.030,-0.390,-0.530,0.460
6.818,0.060,-0.390,-0.520,0.480
6.820,0.070,-0.380,-0.510,0.490
6.822,0.080,-0.370,-0.500,0.490
6.824,0.060,-0.340,-0.460,0.450
6.826,0.030,-0.290,-0.420,0.420
6.828,0.040,-0.280,-0.420,0.410
6.830,0.070,-0.290,-0.420,0.430
6.832,0.090,-0.280,-0.420,0.440
6.834,0.090,-0.270,-0.410,0.460
6.836,0.100,-0.270,-0.400,0.460
6.838,0.100,-0.250,-0.370,0.440
6.840,0.070,-0.230,-0.340,0.400
6.842,0.050,-0.220,-0.320,0.390
6.844,0.040,-0.220,-0.300,0.370
6.846,0.050,-0.210,-0.280,0.350
6.848,0.050,-0.200,-0.270,0.330
6.850,0.040,-0.190,-0.240,0.340
6.852,0.030,-0.170,-0.210,0.320
6.854,0.020,-0.160,-0.190,0.300
6.856,0.000,-0.160,-0.170,0.260
6.858,-0.020,-0.150,-0.140,0.210
6.860,-0.050,-0.130,-0.100,0.180
6.862,-0.070,-0.120,-0.050,0.140
6.864,-0.090,-0.110,0.000,0.100
6.866,-0.120,-0.080,0.050,0.050
6.868,-0.140,-0.040,0.100,0.010
6.870,-0.150,-0.030,0.120,0.000
6.872,-0.160,-0.030,0.150,-0.030
6.874,-0.180,-0.040,0.180,-0.050
6.876,-0.200,-0.030,0.210,-0.070
6.878,-0.210,-0.020,0.250,-0.110
6.880,-0.210,0.000,0.280,-0.170
6.882,-0.230,0.010,0.310,-0.190
6.884,-0.230,0.020,0.320,-0.180
6.886,-0.230,0.040,0.330,-0.170
6.888,-0.210,0.050,0.360,-0.190
6.890,-0.220,0.050,0.380,-0.210
6.892,-0.230,0.050,0.400,-0.240
6.894,-0.250,0.060,0.420,-0.270
6.896,-0.250,0.080,0.420,-0.300
6.898,-0.240,0.080,0.430,-0.290
6.900,-0.220,0.070,0.440,-0.270
6.902,-0.200,0.070,0.450,-0.260
6.904,-0.200,0.070,0.450,-0.260
6.906,-0.200,0.060,0.460,-0.270
6.908,-0.210,0.070,0.470,-0.290
6.910,-0.230,0.090,0.490,-0.300
6.912,-0.230,0.090,0.500,-0.300
6.914,-0.220,0.080,0.510,-0.280
6.916,-0.200,0.080,0.500,-0.250
6.918,-0.200,0.070,0.490,-0.230
6.920,-0.190,0.070,0.490,-0.230
6.922,-0.200,0.070,0.480,-0.230
6.924,-0.200,0.090,0.490,-0.240
6.926,-0.200,0.110,0.500,-0.250
6.928,-0.190,0.120,0.510,-0.240
6.930,-0.160,0.120,0.500,-0.220
6.932,-0.140,0.120,0.490,-0.210
6.934,-0.140,0.130,0.490,-0.200
6.936,-0.150,0.150,0.480,-0.190
6.938,-0.150,0.160,0.480,-0.200
6.940,-0.150,0.150,0.490,-0.210
6.942,-0.150,0.150,0.490,-0.210
6.944,-0.150,0.140,0.490,-0.190
6.946,-0.160,0.130,0.490,-0.190
6.948,-0.140,0.120,0.480,-0.180
6.950,-0.130,0.130,0.490,-0.170
6.952,-0.120,0.130,0.490,-0.160
6.954,-0.120,0.120,0.490,-0.150
6.956,-0.110,0.110,0.490,-0.150
6.958,-0.110,0.110,0.500,-0.150
6.960,-0.120,0.120,0.500,-0.160
6.962,-0.120,0.110,0.500,-0.170
6.964,-0.120,0.100,0.500,-0.170
6.966,-0.110,0.100,0.500,-0.170
6.968,-0.110,0.080,0.480,-0.160
6.970,-0.110,0.070,0.480,-0.150
6.972,-0.100,0.070,0.470,-0.150
6.974,-0.110,0.070,0.480,-0.150
6.976,-0.120,0.090,0.480,-0.150
6.978,-0.130,0.100,0.490,-0.150
6.980,-0.140,0.110,0.490,-0.140
6.982,-0.130,0.100,0.480,-0.130
6.984,-0.110,0.100,0.460,-0.100
6.986,-0.100,0.090,0.450,-0.090
6.988,-0.090,0.080,0.450,-0.090
6.990,-0.090,0.070,0.440,-0.080
6.992,-0.100,0.090,0.440,-0.080
6.994,-0.110,0.110,0.430,-0.090
6.996,-0.110,0.100,0.420,-0.090
6.998,-0.090,0.090,0.410,-0.080
7.000,-0.080,0.070,0.410,-0.070
7.002,-0.050,0.070,0.400,-0.050
7.004,-0.040,0.060,0.400,-0.040
7.006,-0.050,0.050,0.400,-0.050
7.008,-0.080,0.060,0.420,-0.080
7.010,-0.090,0.070,0.420,-0.090
7.012,-0.090,0.070,0.420,-0.090
7.014,-0.090,0.080,0.430,-0.100
7.016,-0.080,0.090,0.430,-0.080
7.018,-0.060,0.080,0.410,-0.040
7.020,-0.040,0.090,0.410,-0.040
7.022,-0.050,0.100,0.420,-0.030
7.024,-0.050,0.090,0.430,-0.020
7.026,-0.040,0.080,0.430,-0.030
7.028,-0.040,0.080,0.430,-0.050
7.030,-0.030,0.100,0.440,-0.060
7.032,-0.020,0.110,0.440,-0.050
7.034,-0.010,0.120,0.440,-0.040
7.036,-0.010,0.130,0.440,-0.040
7.038,-0.010,0.130,0.440,-0.030
7.040,0.000,0.120,0.440,-0.020
7.042,-0.010,0.130,0.440,-0.020
7.044,0.000,0.140,0.450,-0.020
7.046,0.000,0.140,0.460,-0.020
7.048,0.000,0.160,0.460,-0.040
7.050,0.000,0.170,0.450,-0.040
7.052,0.010,0.160,0.430,-0.030
7.054,0.020,0.150,0.440,-0.030
7.056,0.030,0.150,0.450,-0.040
7.058,0.030,0.150,0.450,-0.040
7.060,0.030,0.150,0.460,-0.050
7.062,0.030,0.150,0.470,-0.060
7.064,0.030,0.160,0.480,-0.070
7.066,0.020,0.150,0.480,-0.050
7.068,0.020,0.150,0.480,-0.030
7.070,0.030,0.150,0.470,-0.020
7.072,0.040,0.140,0.460,-0.020
7.074,0.040,0.130,0.450,-0.030
7.076,0.020,0.140,0.450,-0.040
7.078,0.000,0.140,0.450,-0.060
7.080,0.000,0.140,0.460,-0.060
7.082,0.000,0.140,0.450,-0.050
7.084,0.000,0.130,0.440,-0.030
7.086,0.000,0.120,0.430,-0.040
7.088,0.000,0.130,0.420,-0.050
7.090,-0.020,0.140,0.410,-0.070
7.092,-0.040,0.150,0.410,-0.080
7.094,-0.040,0.150,0.410,-0.080
7.096,-0.030,0.150,0.410,-0.070
7.098,-0.030,0.150,0.390,-0.050
7.100,-0.020,0.160,0.380,-0.030
7.102,-0.020,0.160,0.370,-0.010
7.104,0.000,0.160,0.370,-0.030
7.106,0.000,0.170,0.390,-0.060
7.108,0.000,0.170,0.390,-0.070
7.110,0.000,0.160,0.400,-0.080
7.112,0.000,0.160,0.400,-0.080
7.114,0.010,0.170,0.400,-0.070
7.116,0.020,0.170,0.390,-0.070
7.118,0.030,0.180,0.380,-0.060
7.120,0.040,0.190,0.370,-0.070
7.122,0.050,0.180,0.370,-0.070
7.124,0.050,0.170,0.370,-0.060
7.126,0.040,0.160,0.380,-0.060
7.128,0.030,0.170,0.380,-0.050
7.130,0.020,0.170,0.370,-0.060
7.132,0.020,0.180,0.370,-0.060
7.134,0.000,0.190,0.380,-0.070
7.136,0.000,0.180,0.380,-0.070
7.138,0.020,0.180,0.360,-0.070
7.140,0.030,0.180,0.360,-0.070
7.142,0.020,0.170,0.360,-0.070
7.144,0.020,0.170,0.370,-0.080
7.146,0.010,0.180,0.380,-0.090
7.148,0.000,0.200,0.370,-0.100
7.150,0.010,0.190,0.360,-0.080
7.152,0.010,0.180,0.340,-0.060
7.154,0.010,0.180,0.340,-0.060
7.156,0.000,0.180,0.330,-0.080
7.158,0.000,0.170,0.320,-0.090
7.160,-0.010,0.180,0.330,-0.110
7.162,-0.010,0.200,0.350,-0.130
7.164,0.000,0.200,0.350,-0.140
7.166,0.000,0.190,0.340,-0.130
7.168,0.000,0.170,0.340,-0.110
7.170,0.000,0.160,0.350,-0.100
7.172,0.000,0.140,0.360,-0.100
7.174,0.000,0.140,0.370,-0.110
7.176,-0.020,0.170,0.390,-0.140
7.178,-0.040,0.180,0.380,-0.150
7.180,-0.030,0.180,0.360,-0.150
7.182,-0.010,0.180,0.340,-0.150
7.184,0.000,0.190,0.330,-0.130
7.186,0.020,0.190,0.320,-0.120
7.188,0.020,0.210,0.320,-0.130
7.190,0.010,0.230,0.310,-0.140
7.192,0.010,0.230,0.310,-0.140
7.194,0.010,0.220,0.310,-0.140
7.196,0.010,0.200,0.300,-0.130
7.198,0.020,0.180,0.300,-0.120
7.200,0.030,0.170,0.290,-0.120
7.202,0.040,0.180,0.270,-0.110
7.204,0.040,0.200,0.260,-0.100
7.206,0.040,0.190,0.230,-0.100
7.208,0.040,0.170,0.210,-0.090
7.210,0.020,0.150,0.200,-0.080
7.212,0.020,0.140,0.210,-0.080
7.214,0.040,0.120,0.220,-0.090
7.216,0.040,0.110,0.210,-0.080
7.218,0.030,0.120,0.210,-0.080
7.220,0.030,0.120,0.200,-0.070
7.222,0.040,0.100,0.180,-0.060
7.224,0.040,0.080,0.160,-0.050
7.226,0.030,0.070,0.160,-0.050
7.228,0.030,0.080,0.160,-0.040
7.230,0.030,0.070,0.170,-0.020
7.232,0.030,0.070,0.170,-0.010
7.234,0.040,0.060,0.160,0.000
7.236,0.060,0.050,0.140,0.000
7.238,0.060,0.040,0.130,-0.010
7.240,0.070,0.020,0.110,0.000
7.242,0.060,0.010,0.110,0.000
7.244,0.050,0.020,0.110,0.000
7.246,0.040,0.030,0.100,-0.010
7.248,0.040,0.030,0.090,0.000
7.250,0.050,0.020,0.080,0.020
7.252,0.050,0.010,0.070,0.030
7.254,0.050,0.010,0.060,0.040
7.256,0.050,0.000,0.060,0.040
7.258,0.050,0.000,0.060,0.040
7.260,0.020,0.030,0.070,0.020
7.262,0.020,0.040,0.070,0.010
7.264,0.020,0.020,0.050,0.040
7.266,0.030,0.000,0.020,0.070
7.268,0.030,-0.040,-0.020,0.100
7.270,0.020,-0.090,-0.060,0.130
7.272,0.010,-0.140,-0.120,0.150
7.274,-0.030,-0.190,-0.170,0.140
7.276,-0.070,-0.220,-0.200,0.140
7.278,-0.070,-0.210,-0.170,0.140
7.280,-0.030,-0.110,-0.080,0.140
7.282,0.050,0.050,0.050,0.140
7.284,0.200,0.300,0.250,0.140
7.286,0.400,0.610,0.470,0.150
7.288,0.670,1.010,0.690,0.190
7.290,1.020,1.450,0.930,0.270
7.292,1.400,1.930,1.200,0.360
7.294,1.810,2.430,1.500,0.440
7.296,2.230,2.940,1.800,0.520
7.298,2.680,3.460,2.090,0.610
7.300,3.100,3.950,2.350,0.700
7.302,3.460,4.330,2.540,0.790
7.304,3.740,4.570,2.620,0.880
7.306,3.890,4.650,2.630,0.940
7.308,3.910,4.590,2.550,0.980
7.310,3.780,4.360,2.370,0.960
7.312,3.430,3.950,2.150,0.830
7.314,2.880,3.400,1.900,0.610
7.316,2.270,2.830,1.640,0.380
7.318,1.740,2.270,1.380,0.210
7.320,1.320,1.790,1.130,0.090
7.322,0.950,1.380,0.890,0.010
7.324,0.630,1.020,0.690,-0.030
7.326,0.370,0.700,0.510,-0.050
7.328,0.170,0.440,0.340,-0.070
7.330,0.000,0.230,0.180,-0.090
7.332,-0.130,0.030,0.050,-0.090
7.334,-0.250,-0.140,-0.050,-0.060
7.336,-0.350,-0.300,-0.140,-0.050
7.338,-0.430,-0.430,-0.220,-0.040
7.340,-0.490,-0.550,-0.290,-0.050
7.342,-0.560,-0.640,-0.330,-0.050
7.344,-0.620,-0.700,-0.360,-0.070
7.346,-0.670,-0.770,-0.390,-0.080
7.348,-0.700,-0.830,-0.420,-0.060
7.350,-0.710,-0.850,-0.450,-0.040
7.352,-0.710,-0.880,-0.480,-0.030
7.354,-0.710,-0.900,-0.500,-0.020
7.356,-0.720,-0.900,-0.520,-0.020
7.358,-0.720,-0.890,-0.530,-0.030
7.360,-0.730,-0.880,-0.520,-0.040
7.362,-0.730,-0.870,-0.520,-0.040
7.364,-0.710,-0.870,-0.510,-0.020
7.366,-0.700,-0.860,-0.500,0.000
7.368,-0.680,-0.850,-0.500,0.020
7.370,-0.650,-0.830,-0.500,0.040
7.372,-0.630,-0.810,-0.500,0.030
7.374,-0.620,-0.810,-0.490,0.020
7.376,-0.620,-0.800,-0.480,0.020
7.378,-0.620,-0.780,-0.470,0.020
7.380,-0.600,-0.780,-0.460,0.020
7.382,-0.580,-0.770,-0.470,0.040
7.384,-0.560,-0.760,-0.480,0.050
7.386,-0.540,-0.720,-0.470,0.050
7.388,-0.520,-0.700,-0.450,0.030
7.390,-0.500,-0.680,-0.430,0.030
7.392,-0.490,-0.680,-0.420,0.020
7.394,-0.490,-0.670,-0.410,0.010
7.396,-0.490,-0.650,-0.410,0.030
7.398,-0.470,-0.640,-0.420,0.060
7.400,-0.460,-0.620,-0.430,0.070
7.402,-0.450,-0.610,-0.430,0.070
7.404,-0.410,-0.600,-0.430,0.080
7.406,-0.380,-0.610,-0.420,0.090
7.408,-0.380,-0.610,-0.390,0.090
7.410,-0.380,-0.610,-0.380,0.090
7.412,-0.370,-0.590,-0.370,0.090
7.414,-0.360,-0.560,-0.370,0.100
7.416,-0.340,-0.540,-0.360,0.110
7.418,-0.310,-0.540,-0.370,0.130
7.420,-0.280,-0.530,-0.360,0.140
7.422,-0.260,-0.520,-0.340,0.160
7.424,-0.250,-0.520,-0.330,0.180
7.426,-0.260,-0.510,-0.310,0.180
7.428,-0.270,-0.490,-0.310,0.160
7.430,-0.250,-0.480,-0.300,0.160
7.432,-0.220,-0.470,-0.300,0.180
7.434,-0.200,-0.460,-0.300,0.210
7.436,-0.190,-0.460,-0.310,0.220
7.438,-0.180,-0.450,-0.310,0.230
7.440,-0.170,-0.460,-0.310,0.230
7.442,-0.170,-0.430,-0.300,0.210
7.444,-0.170,-0.410,-0.280,0.200
7.446,-0.150,-0.410,-0.280,0.200
7.448,-0.130,-0.410,-0.300,0.230
7.450,-0.130,-0.410,-0.310,0.260
7.452,-0.120,-0.410,-0.310,0.290
7.454,-0.110,-0.410,-0.310,0.300
7.456,-0.100,-0.400,-0.320,0.290
